Time - Plot 0	Amplitude - Plot 0
0	1.25794
0.001	1.2502
0.002	1.23988
0.003	1.23214
0.004	1.22697
0.005	1.22052
0.006	1.2102
0.007	1.20504
0.008	1.20117
0.009	1.19988
0.01	1.20117
0.011	1.19472
0.012	1.1844
0.013	1.17666
0.014	1.17021
0.015	1.16247
0.016	1.15473
0.017	1.1457
0.018	1.13538
0.019	1.1328
0.02	1.1328
0.021	1.12635
0.022	1.11731
0.023	1.11215
0.024	1.10828
0.025	1.10441
0.026	1.09667
0.027	1.09022
0.028	1.08635
0.029	1.08506
0.03	1.08506
0.031	1.07861
0.032	1.07087
0.033	1.06571
0.034	1.06184
0.035	1.05797
0.036	1.0541
0.037	1.04765
0.038	1.0412
0.039	1.03604
0.04	1.03475
0.041	1.0283
0.042	1.02443
0.043	1.02314
0.044	1.02314
0.045	1.02314
0.046	1.01798
0.047	1.01153
0.048	1.00895
0.049	1.00766
0.05	1.00895
0.051	1.00378
0.052	0.997334
0.053	0.994754
0.054	0.992174
0.055	0.990884
0.056	0.989594
0.057	0.985723
0.058	0.983143
0.059	0.976692
0.06	0.975402
0.061	0.968952
0.062	0.965081
0.063	0.963791
0.064	0.962501
0.065	0.959921
0.066	0.95476
0.067	0.9496
0.068	0.9496
0.069	0.9496
0.07	0.95218
0.071	0.94831
0.072	0.943149
0.073	0.941859
0.074	0.939279
0.075	0.936699
0.076	0.935409
0.077	0.934119
0.078	0.927668
0.079	0.925088
0.08	0.925088
0.081	0.919927
0.082	0.917347
0.083	0.916057
0.084	0.916057
0.085	0.917347
0.086	0.913477
0.087	0.905736
0.088	0.903156
0.089	0.904446
0.09	0.904446
0.091	0.900576
0.092	0.897995
0.093	0.897995
0.094	0.899285
0.095	0.897995
0.096	0.897995
0.097	0.896705
0.098	0.891545
0.099	0.890255
0.1	0.891545
0.101	0.887674
0.102	0.885094
0.103	0.886384
0.104	0.886384
0.105	0.887674
0.106	0.885094
0.107	0.878644
0.108	0.874773
0.109	0.873483
0.11	0.873483
0.111	0.868323
0.112	0.869613
0.113	0.870903
0.114	0.876063
0.115	0.878644
0.116	0.882514
0.117	0.883804
0.118	0.882514
0.119	0.877354
0.12	0.876063
0.121	0.869613
0.122	0.869613
0.123	0.870903
0.124	0.872193
0.125	0.872193
0.126	0.869613
0.127	0.863162
0.128	0.859292
0.129	0.859292
0.13	0.856712
0.131	0.852841
0.132	0.855422
0.133	0.859292
0.134	0.865743
0.135	0.870903
0.136	0.876063
0.137	0.878644
0.138	0.877354
0.139	0.873483
0.14	0.870903
0.141	0.865743
0.142	0.864452
0.143	0.864452
0.144	0.863162
0.145	0.861872
0.146	0.856712
0.147	0.852841
0.148	0.851551
0.149	0.852841
0.15	0.854131
0.151	0.848971
0.152	0.850261
0.153	0.852841
0.154	0.855422
0.155	0.859292
0.156	0.860582
0.157	0.860582
0.158	0.858002
0.159	0.855422
0.16	0.855422
0.161	0.848971
0.162	0.847681
0.163	0.847681
0.164	0.850261
0.165	0.854131
0.166	0.851551
0.167	0.843811
0.168	0.83865
0.169	0.83607
0.17	0.83478
0.171	0.829619
0.172	0.830909
0.173	0.83349
0.174	0.83478
0.175	0.83736
0.176	0.83478
0.177	0.830909
0.178	0.825749
0.179	0.824459
0.18	0.824459
0.181	0.819298
0.182	0.821879
0.183	0.825749
0.184	0.830909
0.185	0.83607
0.186	0.83607
0.187	0.828329
0.188	0.825749
0.189	0.825749
0.19	0.827039
0.191	0.824459
0.192	0.820589
0.193	0.823169
0.194	0.827039
0.195	0.827039
0.196	0.821879
0.197	0.814138
0.198	0.808977
0.199	0.801237
0.2	0.796076
0.201	0.798657
0.202	0.812848
0.203	0.825749
0.204	0.83865
0.205	0.851551
0.206	0.858002
0.207	0.850261
0.208	0.84123
0.209	0.83478
0.21	0.829619
0.211	0.824459
0.212	0.828329
0.213	0.83349
0.214	0.83865
0.215	0.84252
0.216	0.846391
0.217	0.846391
0.218	0.84123
0.219	0.84123
0.22	0.843811
0.221	0.83865
0.222	0.83865
0.223	0.83736
0.224	0.829619
0.225	0.821879
0.226	0.815428
0.227	0.815428
0.228	0.818008
0.229	0.819298
0.23	0.819298
0.231	0.815428
0.232	0.820589
0.233	0.830909
0.234	0.84252
0.235	0.854131
0.236	0.863162
0.237	0.873483
0.238	0.878644
0.239	0.870903
0.24	0.861872
0.241	0.858002
0.242	0.863162
0.243	0.868323
0.244	0.876063
0.245	0.879934
0.246	0.879934
0.247	0.869613
0.248	0.863162
0.249	0.861872
0.25	0.859292
0.251	0.854131
0.252	0.855422
0.253	0.856712
0.254	0.858002
0.255	0.861872
0.256	0.864452
0.257	0.867033
0.258	0.867033
0.259	0.858002
0.26	0.852841
0.261	0.848971
0.262	0.854131
0.263	0.859292
0.264	0.864452
0.265	0.869613
0.266	0.869613
0.267	0.859292
0.268	0.852841
0.269	0.847681
0.27	0.845101
0.271	0.83994
0.272	0.84252
0.273	0.846391
0.274	0.850261
0.275	0.854131
0.276	0.855422
0.277	0.858002
0.278	0.854131
0.279	0.848971
0.28	0.846391
0.281	0.84123
0.282	0.843811
0.283	0.848971
0.284	0.852841
0.285	0.858002
0.286	0.856712
0.287	0.848971
0.288	0.84123
0.289	0.83736
0.29	0.83349
0.291	0.829619
0.292	0.8322
0.293	0.83736
0.294	0.84123
0.295	0.845101
0.296	0.848971
0.297	0.852841
0.298	0.852841
0.299	0.845101
0.3	0.83994
0.301	0.83607
0.302	0.83865
0.303	0.84252
0.304	0.848971
0.305	0.852841
0.306	0.850261
0.307	0.84252
0.308	0.83607
0.309	0.83349
0.31	0.828329
0.311	0.824459
0.312	0.827039
0.313	0.83349
0.314	0.83736
0.315	0.84123
0.316	0.846391
0.317	0.848971
0.318	0.847681
0.319	0.83994
0.32	0.83607
0.321	0.83349
0.322	0.83607
0.323	0.83994
0.324	0.84252
0.325	0.847681
0.326	0.846391
0.327	0.83736
0.328	0.8322
0.329	0.827039
0.33	0.824459
0.331	0.819298
0.332	0.823169
0.333	0.827039
0.334	0.8322
0.335	0.83865
0.336	0.84252
0.337	0.846391
0.338	0.845101
0.339	0.83736
0.34	0.83478
0.341	0.829619
0.342	0.8322
0.343	0.83607
0.344	0.84123
0.345	0.846391
0.346	0.845101
0.347	0.83478
0.348	0.829619
0.349	0.824459
0.35	0.820589
0.351	0.815428
0.352	0.820589
0.353	0.825749
0.354	0.829619
0.355	0.83478
0.356	0.83994
0.357	0.84252
0.358	0.83994
0.359	0.83607
0.36	0.83478
0.361	0.8322
0.362	0.8322
0.363	0.83736
0.364	0.84252
0.365	0.848971
0.366	0.848971
0.367	0.83994
0.368	0.8322
0.369	0.827039
0.37	0.821879
0.371	0.818008
0.372	0.821879
0.373	0.827039
0.374	0.8322
0.375	0.83865
0.376	0.843811
0.377	0.846391
0.378	0.845101
0.379	0.83994
0.38	0.83478
0.381	0.829619
0.382	0.83349
0.383	0.83865
0.384	0.843811
0.385	0.848971
0.386	0.847681
0.387	0.83865
0.388	0.830909
0.389	0.827039
0.39	0.823169
0.391	0.819298
0.392	0.823169
0.393	0.828329
0.394	0.83349
0.395	0.83736
0.396	0.84252
0.397	0.845101
0.398	0.843811
0.399	0.83736
0.4	0.83349
0.401	0.828329
0.402	0.8322
0.403	0.83736
0.404	0.84252
0.405	0.847681
0.406	0.845101
0.407	0.83865
0.408	0.830909
0.409	0.825749
0.41	0.823169
0.411	0.819298
0.412	0.823169
0.413	0.829619
0.414	0.83349
0.415	0.83865
0.416	0.84252
0.417	0.845101
0.418	0.84252
0.419	0.83607
0.42	0.830909
0.421	0.828329
0.422	0.8322
0.423	0.83607
0.424	0.84123
0.425	0.846391
0.426	0.843811
0.427	0.83478
0.428	0.828329
0.429	0.823169
0.43	0.820589
0.431	0.816718
0.432	0.819298
0.433	0.824459
0.434	0.829619
0.435	0.83478
0.436	0.83865
0.437	0.84252
0.438	0.84123
0.439	0.83349
0.44	0.828329
0.441	0.825749
0.442	0.827039
0.443	0.8322
0.444	0.83865
0.445	0.84252
0.446	0.84123
0.447	0.830909
0.448	0.824459
0.449	0.820589
0.45	0.816718
0.451	0.812848
0.452	0.816718
0.453	0.821879
0.454	0.825749
0.455	0.8322
0.456	0.83478
0.457	0.83865
0.458	0.83736
0.459	0.829619
0.46	0.824459
0.461	0.820589
0.462	0.823169
0.463	0.828329
0.464	0.8322
0.465	0.83736
0.466	0.83478
0.467	0.827039
0.468	0.820589
0.469	0.816718
0.47	0.811558
0.471	0.808977
0.472	0.811558
0.473	0.816718
0.474	0.821879
0.475	0.825749
0.476	0.829619
0.477	0.83349
0.478	0.829619
0.479	0.823169
0.48	0.819298
0.481	0.816718
0.482	0.819298
0.483	0.824459
0.484	0.829619
0.485	0.83349
0.486	0.830909
0.487	0.821879
0.488	0.815428
0.489	0.811558
0.49	0.807687
0.491	0.803817
0.492	0.808977
0.493	0.812848
0.494	0.818008
0.495	0.823169
0.496	0.825749
0.497	0.829619
0.498	0.825749
0.499	0.820589
0.5	0.815428
0.501	0.811558
0.502	0.816718
0.503	0.820589
0.504	0.825749
0.505	0.830909
0.506	0.827039
0.507	0.819298
0.508	0.814138
0.509	0.811558
0.51	0.806397
0.511	0.803817
0.512	0.807687
0.513	0.812848
0.514	0.816718
0.515	0.821879
0.516	0.825749
0.517	0.827039
0.518	0.825749
0.519	0.819298
0.52	0.814138
0.521	0.812848
0.522	0.814138
0.523	0.818008
0.524	0.823169
0.525	0.825749
0.526	0.821879
0.527	0.815428
0.528	0.810268
0.529	0.806397
0.53	0.803817
0.531	0.799947
0.532	0.803817
0.533	0.807687
0.534	0.811558
0.535	0.816718
0.536	0.819298
0.537	0.821879
0.538	0.818008
0.539	0.812848
0.54	0.807687
0.541	0.805107
0.542	0.807687
0.543	0.812848
0.544	0.815428
0.545	0.819298
0.546	0.815428
0.547	0.810268
0.548	0.806397
0.549	0.805107
0.55	0.802527
0.551	0.798657
0.552	0.801237
0.553	0.806397
0.554	0.808977
0.555	0.814138
0.556	0.816718
0.557	0.819298
0.558	0.815428
0.559	0.810268
0.56	0.806397
0.561	0.801237
0.562	0.805107
0.563	0.808977
0.564	0.812848
0.565	0.816718
0.566	0.812848
0.567	0.807687
0.568	0.803817
0.569	0.801237
0.57	0.798657
0.571	0.796076
0.572	0.798657
0.573	0.802527
0.574	0.805107
0.575	0.808977
0.576	0.811558
0.577	0.814138
0.578	0.810268
0.579	0.805107
0.58	0.802527
0.581	0.798657
0.582	0.799947
0.583	0.802527
0.584	0.805107
0.585	0.808977
0.586	0.803817
0.587	0.799947
0.588	0.796076
0.589	0.794786
0.59	0.792206
0.591	0.789626
0.592	0.790916
0.593	0.794786
0.594	0.798657
0.595	0.801237
0.596	0.803817
0.597	0.805107
0.598	0.801237
0.599	0.798657
0.6	0.796076
0.601	0.792206
0.602	0.794786
0.603	0.798657
0.604	0.799947
0.605	0.803817
0.606	0.799947
0.607	0.793496
0.608	0.789626
0.609	0.785755
0.61	0.784465
0.611	0.779305
0.612	0.781885
0.613	0.785755
0.614	0.788336
0.615	0.790916
0.616	0.792206
0.617	0.794786
0.618	0.790916
0.619	0.787046
0.62	0.783175
0.621	0.780595
0.622	0.783175
0.623	0.784465
0.624	0.787046
0.625	0.789626
0.626	0.783175
0.627	0.779305
0.628	0.776725
0.629	0.775435
0.63	0.772854
0.631	0.768984
0.632	0.770274
0.633	0.772854
0.634	0.776725
0.635	0.778015
0.636	0.779305
0.637	0.780595
0.638	0.775435
0.639	0.772854
0.64	0.772854
0.641	0.767694
0.642	0.770274
0.643	0.771564
0.644	0.774144
0.645	0.774144
0.646	0.768984
0.647	0.766404
0.648	0.766404
0.649	0.765114
0.65	0.765114
0.651	0.761243
0.652	0.761243
0.653	0.763823
0.654	0.766404
0.655	0.768984
0.656	0.768984
0.657	0.770274
0.658	0.765114
0.659	0.763823
0.66	0.762533
0.661	0.757373
0.662	0.758663
0.663	0.761243
0.664	0.763823
0.665	0.765114
0.666	0.759953
0.667	0.757373
0.668	0.758663
0.669	0.761243
0.67	0.766404
0.671	0.762533
0.672	0.762533
0.673	0.763823
0.674	0.765114
0.675	0.766404
0.676	0.767694
0.677	0.767694
0.678	0.763823
0.679	0.762533
0.68	0.762533
0.681	0.757373
0.682	0.758663
0.683	0.758663
0.684	0.761243
0.685	0.762533
0.686	0.757373
0.687	0.754793
0.688	0.753503
0.689	0.756083
0.69	0.754793
0.691	0.750922
0.692	0.752212
0.693	0.753503
0.694	0.756083
0.695	0.757373
0.696	0.758663
0.697	0.758663
0.698	0.754793
0.699	0.753503
0.7	0.750922
0.701	0.748342
0.702	0.748342
0.703	0.749632
0.704	0.750922
0.705	0.753503
0.706	0.748342
0.707	0.747052
0.708	0.745762
0.709	0.747052
0.71	0.747052
0.711	0.743182
0.712	0.743182
0.713	0.745762
0.714	0.748342
0.715	0.749632
0.716	0.749632
0.717	0.750922
0.718	0.745762
0.719	0.745762
0.72	0.744472
0.721	0.740601
0.722	0.741892
0.723	0.743182
0.724	0.744472
0.725	0.747052
0.726	0.741892
0.727	0.741892
0.728	0.740601
0.729	0.741892
0.73	0.741892
0.731	0.738021
0.732	0.739311
0.733	0.741892
0.734	0.743182
0.735	0.744472
0.736	0.745762
0.737	0.747052
0.738	0.743182
0.739	0.741892
0.74	0.740601
0.741	0.735441
0.742	0.738021
0.743	0.739311
0.744	0.741892
0.745	0.743182
0.746	0.738021
0.747	0.736731
0.748	0.736731
0.749	0.736731
0.75	0.738021
0.751	0.732861
0.752	0.734151
0.753	0.734151
0.754	0.736731
0.755	0.738021
0.756	0.738021
0.757	0.738021
0.758	0.732861
0.759	0.734151
0.76	0.732861
0.761	0.730281
0.762	0.730281
0.763	0.732861
0.764	0.734151
0.765	0.735441
0.766	0.730281
0.767	0.730281
0.768	0.730281
0.769	0.731571
0.77	0.731571
0.771	0.7277
0.772	0.7277
0.773	0.730281
0.774	0.730281
0.775	0.731571
0.776	0.732861
0.777	0.732861
0.778	0.7277
0.779	0.730281
0.78	0.72899
0.781	0.72512
0.782	0.72512
0.783	0.72512
0.784	0.72512
0.785	0.72512
0.786	0.71996
0.787	0.718669
0.788	0.72254
0.789	0.72641
0.79	0.730281
0.791	0.72383
0.792	0.71996
0.793	0.714799
0.794	0.712219
0.795	0.709639
0.796	0.708349
0.797	0.707058
0.798	0.704478
0.799	0.701898
0.8	0.699318
0.801	0.699318
0.802	0.704478
0.803	0.708349
0.804	0.713509
0.805	0.717379
0.806	0.710929
0.807	0.709639
0.808	0.710929
0.809	0.717379
0.81	0.7277
0.811	0.7277
0.812	0.72254
0.813	0.716089
0.814	0.708349
0.815	0.704478
0.816	0.705768
0.817	0.705768
0.818	0.701898
0.819	0.705768
0.82	0.709639
0.821	0.703188
0.822	0.700608
0.823	0.699318
0.824	0.698028
0.825	0.698028
0.826	0.694157
0.827	0.692867
0.828	0.690287
0.829	0.687707
0.83	0.685127
0.831	0.685127
0.832	0.690287
0.833	0.695447
0.834	0.699318
0.835	0.703188
0.836	0.705768
0.837	0.707058
0.838	0.703188
0.839	0.704478
0.84	0.707058
0.841	0.703188
0.842	0.705768
0.843	0.709639
0.844	0.713509
0.845	0.713509
0.846	0.710929
0.847	0.717379
0.848	0.7277
0.849	0.743182
0.85	0.761243
0.851	0.765114
0.852	0.761243
0.853	0.756083
0.854	0.747052
0.855	0.740601
0.856	0.735441
0.857	0.731571
0.858	0.7277
0.859	0.738021
0.86	0.766404
0.861	0.785755
0.862	0.793496
0.863	0.789626
0.864	0.785755
0.865	0.789626
0.866	0.792206
0.867	0.796076
0.868	0.798657
0.869	0.797366
0.87	0.796076
0.871	0.803817
0.872	0.812848
0.873	0.819298
0.874	0.819298
0.875	0.818008
0.876	0.815428
0.877	0.814138
0.878	0.808977
0.879	0.802527
0.88	0.797366
0.881	0.796076
0.882	0.796076
0.883	0.798657
0.884	0.798657
0.885	0.797366
0.886	0.792206
0.887	0.792206
0.888	0.789626
0.889	0.788336
0.89	0.785755
0.891	0.784465
0.892	0.788336
0.893	0.792206
0.894	0.792206
0.895	0.794786
0.896	0.794786
0.897	0.792206
0.898	0.787046
0.899	0.789626
0.9	0.790916
0.901	0.785755
0.902	0.784465
0.903	0.785755
0.904	0.785755
0.905	0.785755
0.906	0.780595
0.907	0.783175
0.908	0.789626
0.909	0.799947
0.91	0.805107
0.911	0.805107
0.912	0.812848
0.913	0.818008
0.914	0.814138
0.915	0.819298
0.916	0.828329
0.917	0.83865
0.918	0.858002
0.919	0.882514
0.92	0.901866
0.921	0.901866
0.922	0.892835
0.923	0.887674
0.924	0.888965
0.925	0.895415
0.926	0.890255
0.927	0.881224
0.928	0.872193
0.929	0.864452
0.93	0.858002
0.931	0.865743
0.932	0.879934
0.933	0.892835
0.934	0.903156
0.935	0.910897
0.936	0.914767
0.937	0.916057
0.938	0.909606
0.939	0.905736
0.94	0.901866
0.941	0.896705
0.942	0.895415
0.943	0.895415
0.944	0.886384
0.945	0.882514
0.946	0.896705
0.947	0.910897
0.948	0.919927
0.949	0.919927
0.95	0.912187
0.951	0.916057
0.952	0.922508
0.953	0.927668
0.954	0.931538
0.955	0.925088
0.956	0.923798
0.957	0.926378
0.958	0.934119
0.959	0.94702
0.96	0.95476
0.961	0.9496
0.962	0.961211
0.963	0.975402
0.964	0.992174
0.965	1.00378
0.966	0.996044
0.967	0.990884
0.968	0.999914
0.969	1.02572
0.97	1.05926
0.971	1.0799
0.972	1.08764
0.973	1.09151
0.974	1.08506
0.975	1.07474
0.976	1.06442
0.977	1.05797
0.978	1.04765
0.979	1.03862
0.98	1.02959
0.981	1.03346
0.982	1.04378
0.983	1.0541
0.984	1.05926
0.985	1.04894
0.986	1.05281
0.987	1.06442
0.988	1.07345
0.989	1.07474
0.99	1.06442
0.991	1.06571
0.992	1.06184
0.993	1.05281
0.994	1.04249
0.995	1.03475
0.996	1.03217
0.997	1.03346
0.998	1.02443
0.999	1.01282
1	1.00507
1.001	1.01153
1.002	1.02056
1.003	1.02443
1.004	1.02056
1.005	1.01024
1.006	1.00895
1.007	1.01669
1.008	1.02701
1.009	1.03604
1.01	1.04378
1.011	1.0412
1.012	1.04249
1.013	1.04378
1.014	1.0412
1.015	1.03475
1.016	1.02443
1.017	1.01282
1.018	1.00378
1.019	0.996044
1.02	0.989594
1.021	1.0012
1.022	1.02185
1.023	1.0412
1.024	1.05926
1.025	1.07345
1.026	1.06958
1.027	1.05926
1.028	1.04894
1.029	1.03733
1.03	1.02701
1.031	1.02701
1.032	1.03217
1.033	1.03346
1.034	1.03217
1.035	1.02959
1.036	1.02056
1.037	1.00766
1.038	1.00895
1.039	1.02056
1.04	1.0283
1.041	1.02443
1.042	1.02443
1.043	1.02701
1.044	1.02959
1.045	1.02443
1.046	1.02314
1.047	1.0154
1.048	1.00507
1.049	0.993464
1.05	0.984433
1.051	0.985723
1.052	0.992174
1.053	0.999914
1.054	1.00766
1.055	1.01669
1.056	1.02443
1.057	1.02959
1.058	1.02314
1.059	1.01282
1.06	1.00249
1.061	1.00507
1.062	1.00766
1.063	1.01153
1.064	1.01153
1.065	1.01024
1.066	1.00249
1.067	0.997334
1.068	0.989594
1.069	0.980563
1.07	0.971532
1.071	0.967662
1.072	0.961211
1.073	0.95476
1.074	0.94831
1.075	0.943149
1.076	0.937989
1.077	0.930248
1.078	0.926378
1.079	0.925088
1.08	0.918637
1.081	0.918637
1.082	0.925088
1.083	0.928958
1.084	0.934119
1.085	0.940569
1.086	0.932828
1.087	0.922508
1.088	0.913477
1.089	0.907026
1.09	0.901866
1.091	0.896705
1.092	0.892835
1.093	0.886384
1.094	0.878644
1.095	0.882514
1.096	0.901866
1.097	0.923798
1.098	0.95089
1.099	0.971532
1.1	0.977982
1.101	0.970242
1.102	0.970242
1.103	0.975402
1.104	0.984433
1.105	0.993464
1.106	0.984433
1.107	0.983143
1.108	0.998624
1.109	1.02314
1.11	1.03862
1.111	1.03733
1.112	1.0283
1.113	1.01669
1.114	1.01153
1.115	1.01282
1.116	1.02185
1.117	1.03217
1.118	1.03088
1.119	1.02185
1.12	1.01024
1.121	1.00636
1.122	1.00507
1.123	1.00507
1.124	1.00766
1.125	1.00766
1.126	0.998624
1.127	0.993464
1.128	0.996044
1.129	1.00249
1.13	1.01024
1.131	1.00378
1.132	0.992174
1.133	0.988303
1.134	0.987013
1.135	0.988303
1.136	0.988303
1.137	0.990884
1.138	0.981853
1.139	0.977982
1.14	0.981853
1.141	0.990884
1.142	1.01024
1.143	1.02443
1.144	1.03088
1.145	1.02959
1.146	1.02959
1.147	1.0283
1.148	1.03217
1.149	1.04378
1.15	1.05539
1.151	1.04765
1.152	1.03733
1.153	1.03475
1.154	1.03991
1.155	1.05281
1.156	1.067
1.157	1.08119
1.158	1.08119
1.159	1.07216
1.16	1.06313
1.161	1.0541
1.162	1.04249
1.163	1.03346
1.164	1.03346
1.165	1.03475
1.166	1.02572
1.167	1.01411
1.168	1.00636
1.169	1.00249
1.17	1.01282
1.171	1.02572
1.172	1.03862
1.173	1.04765
1.174	1.05152
1.175	1.04378
1.176	1.03346
1.177	1.03088
1.178	1.02185
1.179	1.01798
1.18	1.01153
1.181	1.00507
1.182	1.00378
1.183	1.00378
1.184	1.00636
1.185	1.00636
1.186	0.999914
1.187	0.992174
1.188	0.985723
1.189	0.979273
1.19	0.972822
1.191	0.972822
1.192	0.984433
1.193	1.00766
1.194	1.03217
1.195	1.04636
1.196	1.05023
1.197	1.03991
1.198	1.03475
1.199	1.03733
1.2	1.04249
1.201	1.05152
1.202	1.07861
1.203	1.1186
1.204	1.15215
1.205	1.17666
1.206	1.19472
1.207	1.19472
1.208	1.1844
1.209	1.18182
1.21	1.19085
1.211	1.19472
1.212	1.18698
1.213	1.17408
1.214	1.16505
1.215	1.1844
1.216	1.2231
1.217	1.28374
1.218	1.3676
1.219	1.445
1.22	1.49403
1.221	1.49532
1.222	1.48758
1.223	1.5108
1.224	1.56111
1.225	1.62304
1.226	1.67593
1.227	1.71722
1.228	1.74689
1.229	1.76495
1.23	1.78301
1.231	1.8114
1.232	1.8372
1.233	1.85913
1.234	1.87461
1.235	1.88751
1.236	1.88751
1.237	1.87977
1.238	1.85913
1.239	1.85397
1.24	1.87332
1.241	1.89912
1.242	1.93525
1.243	1.97395
1.244	2.0062
1.245	2.02814
1.246	2.05781
1.247	2.07845
1.248	2.08232
1.249	2.07071
1.25	2.05007
1.251	2.05265
1.252	2.06297
1.253	2.07071
1.254	2.06426
1.255	2.04878
1.256	2.072
1.257	2.12231
1.258	2.19069
1.259	2.2552
1.26	2.29003
1.261	2.281
1.262	2.25778
1.263	2.25133
1.264	2.25649
1.265	2.26681
1.266	2.25778
1.267	2.23842
1.268	2.21262
1.269	2.18553
1.27	2.1636
1.271	2.15457
1.272	2.14038
1.273	2.11457
1.274	2.10425
1.275	2.10941
1.276	2.11973
1.277	2.12618
1.278	2.14038
1.279	2.15199
1.28	2.15457
1.281	2.13522
1.282	2.11328
1.283	2.10554
1.284	2.10296
1.285	2.10554
1.286	2.09522
1.287	2.08232
1.288	2.07071
1.289	2.06168
1.29	2.05394
1.291	2.0591
1.292	2.06297
1.293	2.0591
1.294	2.05136
1.295	2.03459
1.296	2.01136
1.297	1.99975
1.298	2.0062
1.299	2.0191
1.3	2.02556
1.301	2.01394
1.302	1.99717
1.303	1.98169
1.304	1.9546
1.305	1.93009
1.306	1.9159
1.307	1.90557
1.308	1.89396
1.309	1.87848
1.31	1.85913
1.311	1.8501
1.312	1.84236
1.313	1.83075
1.314	1.81269
1.315	1.79333
1.316	1.77785
1.317	1.76237
1.318	1.74689
1.319	1.73786
1.32	1.73528
1.321	1.74818
1.322	1.77785
1.323	1.80366
1.324	1.81785
1.325	1.81656
1.326	1.81011
1.327	1.79075
1.328	1.78559
1.329	1.79721
1.33	1.8114
1.331	1.8243
1.332	1.82946
1.333	1.82301
1.334	1.81398
1.335	1.80624
1.336	1.79333
1.337	1.77398
1.338	1.78559
1.339	1.81398
1.34	1.84881
1.341	1.87332
1.342	1.87977
1.343	1.87332
1.344	1.85397
1.345	1.83591
1.346	1.81785
1.347	1.80495
1.348	1.79204
1.349	1.78043
1.35	1.77398
1.351	1.77785
1.352	1.77785
1.353	1.77269
1.354	1.75979
1.355	1.74173
1.356	1.73012
1.357	1.73528
1.358	1.75979
1.359	1.78817
1.36	1.80366
1.361	1.79979
1.362	1.78817
1.363	1.76753
1.364	1.74818
1.365	1.73786
1.366	1.72109
1.367	1.70045
1.368	1.68368
1.369	1.67206
1.37	1.66303
1.371	1.66819
1.372	1.67335
1.373	1.67593
1.374	1.67593
1.375	1.67077
1.376	1.66045
1.377	1.64497
1.378	1.63078
1.379	1.61917
1.38	1.60756
1.381	1.59853
1.382	1.59853
1.383	1.59724
1.384	1.59337
1.385	1.59079
1.386	1.59853
1.387	1.60369
1.388	1.60369
1.389	1.59982
1.39	1.58692
1.391	1.56627
1.392	1.55337
1.393	1.54047
1.394	1.52112
1.395	1.5108
1.396	1.50435
1.397	1.49274
1.398	1.485
1.399	1.46823
1.4	1.46178
1.401	1.46307
1.402	1.45791
1.403	1.44242
1.404	1.42952
1.405	1.42565
1.406	1.43726
1.407	1.46049
1.408	1.49016
1.409	1.53015
1.41	1.57402
1.411	1.61917
1.412	1.66174
1.413	1.70432
1.414	1.73012
1.415	1.73786
1.416	1.72625
1.417	1.71593
1.418	1.72109
1.419	1.73528
1.42	1.7585
1.421	1.78688
1.422	1.79721
1.423	1.80108
1.424	1.80237
1.425	1.79333
1.426	1.76882
1.427	1.74689
1.428	1.73012
1.429	1.71335
1.43	1.694
1.431	1.67722
1.432	1.66045
1.433	1.64497
1.434	1.62949
1.435	1.62433
1.436	1.63078
1.437	1.65142
1.438	1.69916
1.439	1.76108
1.44	1.81398
1.441	1.85268
1.442	1.87848
1.443	1.87332
1.444	1.85784
1.445	1.85397
1.446	1.83591
1.447	1.82559
1.448	1.82172
1.449	1.82301
1.45	1.82301
1.451	1.83075
1.452	1.83204
1.453	1.82559
1.454	1.81914
1.455	1.8114
1.456	1.79462
1.457	1.77398
1.458	1.76108
1.459	1.75334
1.46	1.73786
1.461	1.71722
1.462	1.69529
1.463	1.67851
1.464	1.66174
1.465	1.66174
1.466	1.68238
1.467	1.70948
1.468	1.73399
1.469	1.7456
1.47	1.7327
1.471	1.72367
1.472	1.72238
1.473	1.71851
1.474	1.71464
1.475	1.71077
1.476	1.70174
1.477	1.68626
1.478	1.67464
1.479	1.66819
1.48	1.65271
1.481	1.63723
1.482	1.62562
1.483	1.61014
1.484	1.60756
1.485	1.59853
1.486	1.5895
1.487	1.59337
1.488	1.60498
1.489	1.61788
1.49	1.63465
1.491	1.65013
1.492	1.65787
1.493	1.654
1.494	1.63981
1.495	1.62175
1.496	1.61014
1.497	1.59595
1.498	1.58305
1.499	1.57144
1.5	1.55595
1.501	1.54176
1.502	1.52112
1.503	1.50822
1.504	1.50564
1.505	1.51983
1.506	1.54692
1.507	1.56885
1.508	1.58434
1.509	1.58434
1.51	1.57014
1.511	1.57144
1.512	1.58434
1.513	1.59466
1.514	1.6024
1.515	1.61401
1.516	1.62691
1.517	1.62562
1.518	1.60756
1.519	1.59466
1.52	1.57918
1.521	1.56756
1.522	1.55208
1.523	1.53789
1.524	1.52241
1.525	1.50693
1.526	1.50951
1.527	1.51983
1.528	1.53402
1.529	1.54434
1.53	1.54305
1.531	1.52757
1.532	1.50822
1.533	1.48887
1.534	1.46952
1.535	1.45274
1.536	1.43984
1.537	1.42823
1.538	1.43081
1.539	1.43597
1.54	1.42952
1.541	1.42178
1.542	1.43081
1.543	1.44113
1.544	1.44242
1.545	1.43597
1.546	1.43081
1.547	1.41791
1.548	1.40372
1.549	1.3934
1.55	1.37921
1.551	1.37534
1.552	1.3805
1.553	1.39211
1.554	1.39598
1.555	1.38824
1.556	1.37405
1.557	1.35986
1.558	1.35857
1.559	1.36115
1.56	1.35599
1.561	1.3405
1.562	1.33276
1.563	1.32502
1.564	1.31212
1.565	1.29922
1.566	1.30309
1.567	1.30696
1.568	1.30825
1.569	1.30696
1.57	1.30309
1.571	1.29922
1.572	1.30051
1.573	1.30438
1.574	1.30825
1.575	1.30825
1.576	1.3018
1.577	1.29922
1.578	1.30954
1.579	1.32373
1.58	1.33405
1.581	1.32502
1.582	1.31599
1.583	1.30954
1.584	1.30438
1.585	1.29406
1.586	1.28761
1.587	1.28761
1.588	1.28761
1.589	1.28503
1.59	1.27471
1.591	1.27858
1.592	1.28632
1.593	1.2889
1.594	1.28503
1.595	1.27729
1.596	1.26826
1.597	1.25923
1.598	1.24762
1.599	1.24762
1.6	1.24117
1.601	1.22568
1.602	1.21407
1.603	1.2102
1.604	1.2102
1.605	1.21665
1.606	1.22697
1.607	1.23084
1.608	1.22826
1.609	1.22697
1.61	1.21923
1.611	1.21536
1.612	1.21407
1.613	1.2102
1.614	1.20375
1.615	1.19601
1.616	1.18569
1.617	1.18827
1.618	1.20633
1.619	1.2373
1.62	1.26052
1.621	1.2631
1.622	1.25407
1.623	1.23859
1.624	1.22697
1.625	1.23343
1.626	1.26052
1.627	1.30567
1.628	1.36502
1.629	1.40888
1.63	1.42694
1.631	1.42178
1.632	1.40888
1.633	1.41791
1.634	1.43984
1.635	1.46694
1.636	1.49274
1.637	1.50951
1.638	1.50693
1.639	1.49016
1.64	1.47597
1.641	1.46565
1.642	1.46049
1.643	1.46049
1.644	1.46049
1.645	1.45661
1.646	1.43984
1.647	1.42565
1.648	1.4192
1.649	1.41017
1.65	1.39598
1.651	1.38566
1.652	1.37276
1.653	1.35857
1.654	1.34308
1.655	1.32631
1.656	1.31083
1.657	1.3018
1.658	1.30438
1.659	1.30954
1.66	1.30309
1.661	1.28632
1.662	1.27342
1.663	1.26439
1.664	1.25278
1.665	1.24117
1.666	1.23343
1.667	1.22568
1.668	1.21794
1.669	1.2102
1.67	1.19988
1.671	1.19214
1.672	1.18698
1.673	1.17924
1.674	1.17537
1.675	1.17021
1.676	1.15989
1.677	1.15086
1.678	1.1586
1.679	1.1715
1.68	1.17537
1.681	1.16763
1.682	1.15473
1.683	1.14441
1.684	1.14054
1.685	1.13151
1.686	1.12377
1.687	1.1199
1.688	1.1186
1.689	1.11602
1.69	1.10699
1.691	1.10054
1.692	1.09538
1.693	1.08248
1.694	1.07474
1.695	1.067
1.696	1.05926
1.697	1.05281
1.698	1.05668
1.699	1.06313
1.7	1.06313
1.701	1.05668
1.702	1.05152
1.703	1.04249
1.704	1.03088
1.705	1.02443
1.706	1.02443
1.707	1.02959
1.708	1.04894
1.709	1.07087
1.71	1.08377
1.711	1.09022
1.712	1.09925
1.713	1.1057
1.714	1.10699
1.715	1.09925
1.716	1.09667
1.717	1.09151
1.718	1.10312
1.719	1.11731
1.72	1.11344
1.721	1.11086
1.722	1.12119
1.723	1.14183
1.724	1.16505
1.725	1.16892
1.726	1.15602
1.727	1.14312
1.728	1.13151
1.729	1.1186
1.73	1.11086
1.731	1.11086
1.732	1.11215
1.733	1.11473
1.734	1.11086
1.735	1.10312
1.736	1.09409
1.737	1.08377
1.738	1.08377
1.739	1.08764
1.74	1.09022
1.741	1.09151
1.742	1.0928
1.743	1.11215
1.744	1.15602
1.745	1.2102
1.746	1.26568
1.747	1.30438
1.748	1.32115
1.749	1.3147
1.75	1.31599
1.751	1.33663
1.752	1.36244
1.753	1.3934
1.754	1.42049
1.755	1.43984
1.756	1.44887
1.757	1.44629
1.758	1.43081
1.759	1.41275
1.76	1.40372
1.761	1.40372
1.762	1.39985
1.763	1.39598
1.764	1.38953
1.765	1.37792
1.766	1.36631
1.767	1.35857
1.768	1.35341
1.769	1.34954
1.77	1.33792
1.771	1.32373
1.772	1.31341
1.773	1.30309
1.774	1.29277
1.775	1.28245
1.776	1.27471
1.777	1.26439
1.778	1.26052
1.779	1.25923
1.78	1.24762
1.781	1.23859
1.782	1.23084
1.783	1.2231
1.784	1.21407
1.785	1.20633
1.786	1.21149
1.787	1.22052
1.788	1.23472
1.789	1.24633
1.79	1.24246
1.791	1.22955
1.792	1.21923
1.793	1.21278
1.794	1.20504
1.795	1.19214
1.796	1.17666
1.797	1.17408
1.798	1.1844
1.799	1.19859
1.8	1.19988
1.801	1.18569
1.802	1.17279
1.803	1.16376
1.804	1.1586
1.805	1.14828
1.806	1.13538
1.807	1.12377
1.808	1.11602
1.809	1.10957
1.81	1.09925
1.811	1.08506
1.812	1.07216
1.813	1.06442
1.814	1.05797
1.815	1.0541
1.816	1.04894
1.817	1.04507
1.818	1.04636
1.819	1.04249
1.82	1.0412
1.821	1.0541
1.822	1.06442
1.823	1.06571
1.824	1.0541
1.825	1.05539
1.826	1.07087
1.827	1.08506
1.828	1.09409
1.829	1.0928
1.83	1.08893
1.831	1.08893
1.832	1.08119
1.833	1.07087
1.834	1.05797
1.835	1.05023
1.836	1.04507
1.837	1.04378
1.838	1.05023
1.839	1.04765
1.84	1.04507
1.841	1.05668
1.842	1.07345
1.843	1.08764
1.844	1.09667
1.845	1.09151
1.846	1.0799
1.847	1.07087
1.848	1.06442
1.849	1.05797
1.85	1.05023
1.851	1.04765
1.852	1.04765
1.853	1.04507
1.854	1.04378
1.855	1.03991
1.856	1.03346
1.857	1.02701
1.858	1.02443
1.859	1.02443
1.86	1.0154
1.861	1.01024
1.862	1.00636
1.863	1.00378
1.864	0.999914
1.865	0.993464
1.866	0.989594
1.867	0.988303
1.868	0.989594
1.869	0.990884
1.87	0.983143
1.871	0.977982
1.872	0.975402
1.873	0.972822
1.874	0.968952
1.875	0.965081
1.876	0.961211
1.877	0.95347
1.878	0.95347
1.879	0.95347
1.88	0.94573
1.881	0.941859
1.882	0.939279
1.883	0.936699
1.884	0.932828
1.885	0.927668
1.886	0.928958
1.887	0.932828
1.888	0.936699
1.889	0.937989
1.89	0.932828
1.891	0.931538
1.892	0.930248
1.893	0.923798
1.894	0.912187
1.895	0.905736
1.896	0.899285
1.897	0.899285
1.898	0.905736
1.899	0.907026
1.9	0.904446
1.901	0.909606
1.902	0.921217
1.903	0.935409
1.904	0.943149
1.905	0.939279
1.906	0.930248
1.907	0.926378
1.908	0.925088
1.909	0.922508
1.91	0.916057
1.911	0.913477
1.912	0.913477
1.913	0.912187
1.914	0.910897
1.915	0.901866
1.916	0.892835
1.917	0.892835
1.918	0.901866
1.919	0.912187
1.92	0.905736
1.921	0.901866
1.922	0.904446
1.923	0.909606
1.924	0.917347
1.925	0.917347
1.926	0.907026
1.927	0.903156
1.928	0.900576
1.929	0.899285
1.93	0.892835
1.931	0.892835
1.932	0.891545
1.933	0.892835
1.934	0.892835
1.935	0.892835
1.936	0.892835
1.937	0.886384
1.938	0.882514
1.939	0.879934
1.94	0.874773
1.941	0.874773
1.942	0.876063
1.943	0.877354
1.944	0.876063
1.945	0.868323
1.946	0.867033
1.947	0.868323
1.948	0.868323
1.949	0.870903
1.95	0.864452
1.951	0.861872
1.952	0.859292
1.953	0.859292
1.954	0.858002
1.955	0.856712
1.956	0.855422
1.957	0.848971
1.958	0.848971
1.959	0.848971
1.96	0.84252
1.961	0.84123
1.962	0.84123
1.963	0.84123
1.964	0.83994
1.965	0.83478
1.966	0.8322
1.967	0.8322
1.968	0.8322
1.969	0.83349
1.97	0.828329
1.971	0.827039
1.972	0.827039
1.973	0.827039
1.974	0.827039
1.975	0.824459
1.976	0.824459
1.977	0.818008
1.978	0.818008
1.979	0.819298
1.98	0.811558
1.981	0.806397
1.982	0.798657
1.983	0.793496
1.984	0.789626
1.985	0.784465
1.986	0.784465
1.987	0.781885
1.988	0.780595
1.989	0.778015
1.99	0.776725
1.991	0.780595
1.992	0.785755
1.993	0.789626
1.994	0.793496
1.995	0.794786
1.996	0.796076
1.997	0.790916
1.998	0.789626
1.999	0.787046
2	0.783175
2.001	0.784465
2.002	0.787046
2.003	0.788336
2.004	0.790916
2.005	0.784465
2.006	0.781885
2.007	0.781885
2.008	0.783175
2.009	0.784465
2.01	0.779305
2.011	0.779305
2.012	0.781885
2.013	0.784465
2.014	0.789626
2.015	0.792206
2.016	0.793496
2.017	0.788336
2.018	0.787046
2.019	0.787046
2.02	0.783175
2.021	0.784465
2.022	0.785755
2.023	0.788336
2.024	0.790916
2.025	0.785755
2.026	0.780595
2.027	0.776725
2.028	0.778015
2.029	0.780595
2.03	0.775435
2.031	0.775435
2.032	0.775435
2.033	0.776725
2.034	0.780595
2.035	0.783175
2.036	0.787046
2.037	0.783175
2.038	0.780595
2.039	0.778015
2.04	0.774144
2.041	0.775435
2.042	0.778015
2.043	0.780595
2.044	0.784465
2.045	0.778015
2.046	0.774144
2.047	0.771564
2.048	0.771564
2.049	0.770274
2.05	0.766404
2.051	0.768984
2.052	0.771564
2.053	0.775435
2.054	0.779305
2.055	0.780595
2.056	0.783175
2.057	0.779305
2.058	0.775435
2.059	0.772854
2.06	0.770274
2.061	0.772854
2.062	0.776725
2.063	0.780595
2.064	0.784465
2.065	0.778015
2.066	0.774144
2.067	0.770274
2.068	0.768984
2.069	0.767694
2.07	0.766404
2.071	0.767694
2.072	0.772854
2.073	0.778015
2.074	0.780595
2.075	0.781885
2.076	0.784465
2.077	0.779305
2.078	0.778015
2.079	0.774144
2.08	0.772854
2.081	0.776725
2.082	0.780595
2.083	0.783175
2.084	0.788336
2.085	0.783175
2.086	0.778015
2.087	0.774144
2.088	0.772854
2.089	0.770274
2.09	0.767694
2.091	0.771564
2.092	0.775435
2.093	0.779305
2.094	0.783175
2.095	0.787046
2.096	0.790916
2.097	0.785755
2.098	0.780595
2.099	0.776725
2.1	0.775435
2.101	0.779305
2.102	0.784465
2.103	0.789626
2.104	0.794786
2.105	0.788336
2.106	0.781885
2.107	0.778015
2.108	0.775435
2.109	0.772854
2.11	0.770274
2.111	0.774144
2.112	0.779305
2.113	0.783175
2.114	0.788336
2.115	0.792206
2.116	0.796076
2.117	0.790916
2.118	0.787046
2.119	0.783175
2.12	0.783175
2.121	0.787046
2.122	0.792206
2.123	0.797366
2.124	0.801237
2.125	0.796076
2.126	0.789626
2.127	0.783175
2.128	0.781885
2.129	0.778015
2.13	0.775435
2.131	0.780595
2.132	0.784465
2.133	0.788336
2.134	0.794786
2.135	0.797366
2.136	0.801237
2.137	0.797366
2.138	0.793496
2.139	0.788336
2.14	0.787046
2.141	0.790916
2.142	0.796076
2.143	0.799947
2.144	0.803817
2.145	0.797366
2.146	0.790916
2.147	0.785755
2.148	0.783175
2.149	0.779305
2.15	0.778015
2.151	0.781885
2.152	0.787046
2.153	0.793496
2.154	0.798657
2.155	0.802527
2.156	0.803817
2.157	0.799947
2.158	0.797366
2.159	0.793496
2.16	0.792206
2.161	0.797366
2.162	0.802527
2.163	0.807687
2.164	0.812848
2.165	0.806397
2.166	0.798657
2.167	0.792206
2.168	0.789626
2.169	0.785755
2.17	0.785755
2.171	0.789626
2.172	0.796076
2.173	0.801237
2.174	0.805107
2.175	0.810268
2.176	0.814138
2.177	0.808977
2.178	0.803817
2.179	0.797366
2.18	0.797366
2.181	0.802527
2.182	0.807687
2.183	0.812848
2.184	0.816718
2.185	0.810268
2.186	0.805107
2.187	0.799947
2.188	0.796076
2.189	0.793496
2.19	0.793496
2.191	0.796076
2.192	0.801237
2.193	0.806397
2.194	0.810268
2.195	0.814138
2.196	0.818008
2.197	0.811558
2.198	0.808977
2.199	0.803817
2.2	0.802527
2.201	0.807687
2.202	0.811558
2.203	0.816718
2.204	0.821879
2.205	0.815428
2.206	0.806397
2.207	0.802527
2.208	0.798657
2.209	0.794786
2.21	0.793496
2.211	0.797366
2.212	0.802527
2.213	0.808977
2.214	0.812848
2.215	0.816718
2.216	0.821879
2.217	0.815428
2.218	0.811558
2.219	0.806397
2.22	0.807687
2.221	0.811558
2.222	0.816718
2.223	0.821879
2.224	0.827039
2.225	0.819298
2.226	0.812848
2.227	0.807687
2.228	0.805107
2.229	0.801237
2.23	0.801237
2.231	0.803817
2.232	0.808977
2.233	0.814138
2.234	0.818008
2.235	0.821879
2.236	0.824459
2.237	0.820589
2.238	0.816718
2.239	0.811558
2.24	0.810268
2.241	0.815428
2.242	0.819298
2.243	0.824459
2.244	0.827039
2.245	0.820589
2.246	0.812848
2.247	0.808977
2.248	0.805107
2.249	0.802527
2.25	0.801237
2.251	0.806397
2.252	0.810268
2.253	0.815428
2.254	0.820589
2.255	0.823169
2.256	0.827039
2.257	0.819298
2.258	0.816718
2.259	0.810268
2.26	0.811558
2.261	0.814138
2.262	0.819298
2.263	0.823169
2.264	0.828329
2.265	0.820589
2.266	0.814138
2.267	0.808977
2.268	0.805107
2.269	0.801237
2.27	0.799947
2.271	0.805107
2.272	0.808977
2.273	0.814138
2.274	0.818008
2.275	0.821879
2.276	0.824459
2.277	0.819298
2.278	0.815428
2.279	0.808977
2.28	0.807687
2.281	0.812848
2.282	0.816718
2.283	0.823169
2.284	0.825749
2.285	0.820589
2.286	0.811558
2.287	0.806397
2.288	0.802527
2.289	0.798657
2.29	0.797366
2.291	0.799947
2.292	0.805107
2.293	0.810268
2.294	0.814138
2.295	0.818008
2.296	0.821879
2.297	0.815428
2.298	0.810268
2.299	0.806397
2.3	0.806397
2.301	0.811558
2.302	0.815428
2.303	0.819298
2.304	0.823169
2.305	0.816718
2.306	0.808977
2.307	0.805107
2.308	0.801237
2.309	0.796076
2.31	0.796076
2.311	0.799947
2.312	0.805107
2.313	0.808977
2.314	0.814138
2.315	0.818008
2.316	0.821879
2.317	0.815428
2.318	0.811558
2.319	0.806397
2.32	0.806397
2.321	0.810268
2.322	0.815428
2.323	0.819298
2.324	0.823169
2.325	0.816718
2.326	0.807687
2.327	0.803817
2.328	0.799947
2.329	0.796076
2.33	0.796076
2.331	0.799947
2.332	0.803817
2.333	0.810268
2.334	0.812848
2.335	0.816718
2.336	0.819298
2.337	0.814138
2.338	0.808977
2.339	0.805107
2.34	0.803817
2.341	0.807687
2.342	0.812848
2.343	0.818008
2.344	0.821879
2.345	0.814138
2.346	0.806397
2.347	0.802527
2.348	0.799947
2.349	0.796076
2.35	0.796076
2.351	0.799947
2.352	0.802527
2.353	0.807687
2.354	0.811558
2.355	0.814138
2.356	0.816718
2.357	0.810268
2.358	0.806397
2.359	0.802527
2.36	0.802527
2.361	0.806397
2.362	0.810268
2.363	0.814138
2.364	0.818008
2.365	0.810268
2.366	0.803817
2.367	0.799947
2.368	0.797366
2.369	0.794786
2.37	0.794786
2.371	0.798657
2.372	0.802527
2.373	0.806397
2.374	0.810268
2.375	0.812848
2.376	0.815428
2.377	0.810268
2.378	0.806397
2.379	0.802527
2.38	0.801237
2.381	0.806397
2.382	0.810268
2.383	0.814138
2.384	0.818008
2.385	0.808977
2.386	0.803817
2.387	0.799947
2.388	0.797366
2.389	0.793496
2.39	0.793496
2.391	0.797366
2.392	0.801237
2.393	0.805107
2.394	0.808977
2.395	0.811558
2.396	0.812848
2.397	0.806397
2.398	0.802527
2.399	0.798657
2.4	0.797366
2.401	0.801237
2.402	0.805107
2.403	0.810268
2.404	0.814138
2.405	0.805107
2.406	0.799947
2.407	0.797366
2.408	0.794786
2.409	0.790916
2.41	0.789626
2.411	0.792206
2.412	0.796076
2.413	0.798657
2.414	0.803817
2.415	0.805107
2.416	0.806397
2.417	0.801237
2.418	0.798657
2.419	0.793496
2.42	0.792206
2.421	0.794786
2.422	0.797366
2.423	0.799947
2.424	0.802527
2.425	0.794786
2.426	0.789626
2.427	0.787046
2.428	0.785755
2.429	0.783175
2.43	0.781885
2.431	0.784465
2.432	0.787046
2.433	0.789626
2.434	0.793496
2.435	0.794786
2.436	0.796076
2.437	0.789626
2.438	0.788336
2.439	0.784465
2.44	0.784465
2.441	0.787046
2.442	0.789626
2.443	0.792206
2.444	0.794786
2.445	0.785755
2.446	0.781885
2.447	0.779305
2.448	0.779305
2.449	0.775435
2.45	0.774144
2.451	0.776725
2.452	0.779305
2.453	0.783175
2.454	0.785755
2.455	0.788336
2.456	0.788336
2.457	0.783175
2.458	0.780595
2.459	0.775435
2.46	0.775435
2.461	0.776725
2.462	0.780595
2.463	0.784465
2.464	0.785755
2.465	0.778015
2.466	0.775435
2.467	0.772854
2.468	0.772854
2.469	0.770274
2.47	0.768984
2.471	0.771564
2.472	0.774144
2.473	0.776725
2.474	0.778015
2.475	0.778015
2.476	0.779305
2.477	0.772854
2.478	0.771564
2.479	0.768984
2.48	0.767694
2.481	0.768984
2.482	0.771564
2.483	0.774144
2.484	0.776725
2.485	0.768984
2.486	0.765114
2.487	0.763823
2.488	0.763823
2.489	0.762533
2.49	0.761243
2.491	0.762533
2.492	0.765114
2.493	0.767694
2.494	0.768984
2.495	0.771564
2.496	0.771564
2.497	0.766404
2.498	0.763823
2.499	0.761243
2.5	0.759953
2.501	0.763823
2.502	0.765114
2.503	0.767694
2.504	0.770274
2.505	0.762533
2.506	0.759953
2.507	0.758663
2.508	0.758663
2.509	0.757373
2.51	0.756083
2.511	0.757373
2.512	0.759953
2.513	0.762533
2.514	0.765114
2.515	0.766404
2.516	0.766404
2.517	0.761243
2.518	0.759953
2.519	0.757373
2.52	0.758663
2.521	0.759953
2.522	0.761243
2.523	0.763823
2.524	0.765114
2.525	0.758663
2.526	0.756083
2.527	0.754793
2.528	0.754793
2.529	0.752212
2.53	0.749632
2.531	0.752212
2.532	0.754793
2.533	0.757373
2.534	0.758663
2.535	0.759953
2.536	0.759953
2.537	0.756083
2.538	0.754793
2.539	0.752212
2.54	0.752212
2.541	0.753503
2.542	0.756083
2.543	0.758663
2.544	0.759953
2.545	0.753503
2.546	0.749632
2.547	0.749632
2.548	0.750922
2.549	0.748342
2.55	0.747052
2.551	0.750922
2.552	0.752212
2.553	0.754793
2.554	0.757373
2.555	0.757373
2.556	0.757373
2.557	0.752212
2.558	0.752212
2.559	0.748342
2.56	0.748342
2.561	0.749632
2.562	0.753503
2.563	0.754793
2.564	0.754793
2.565	0.748342
2.566	0.745762
2.567	0.745762
2.568	0.745762
2.569	0.743182
2.57	0.743182
2.571	0.745762
2.572	0.749632
2.573	0.752212
2.574	0.754793
2.575	0.757373
2.576	0.756083
2.577	0.750922
2.578	0.752212
2.579	0.748342
2.58	0.747052
2.581	0.748342
2.582	0.750922
2.583	0.753503
2.584	0.753503
2.585	0.747052
2.586	0.743182
2.587	0.745762
2.588	0.747052
2.589	0.743182
2.59	0.743182
2.591	0.744472
2.592	0.747052
2.593	0.748342
2.594	0.750922
2.595	0.750922
2.596	0.749632
2.597	0.745762
2.598	0.747052
2.599	0.744472
2.6	0.741892
2.601	0.743182
2.602	0.744472
2.603	0.744472
2.604	0.743182
2.605	0.739311
2.606	0.738021
2.607	0.738021
2.608	0.741892
2.609	0.739311
2.61	0.739311
2.611	0.739311
2.612	0.739311
2.613	0.738021
2.614	0.738021
2.615	0.736731
2.616	0.732861
2.617	0.732861
2.618	0.738021
2.619	0.740601
2.62	0.731571
2.621	0.72383
2.622	0.717379
2.623	0.713509
2.624	0.705768
2.625	0.709639
2.626	0.717379
2.627	0.72383
2.628	0.72512
2.629	0.71996
2.63	0.72254
2.631	0.72383
2.632	0.72254
2.633	0.717379
2.634	0.712219
2.635	0.708349
2.636	0.707058
2.637	0.701898
2.638	0.695447
2.639	0.692867
2.64	0.698028
2.641	0.704478
2.642	0.710929
2.643	0.717379
2.644	0.72512
2.645	0.72254
2.646	0.714799
2.647	0.709639
2.648	0.705768
2.649	0.700608
2.65	0.704478
2.651	0.709639
2.652	0.712219
2.653	0.716089
2.654	0.718669
2.655	0.717379
2.656	0.710929
2.657	0.714799
2.658	0.72254
2.659	0.72512
2.66	0.72254
2.661	0.72641
2.662	0.735441
2.663	0.743182
2.664	0.745762
2.665	0.739311
2.666	0.735441
2.667	0.738021
2.668	0.744472
2.669	0.745762
2.67	0.739311
2.671	0.734151
2.672	0.730281
2.673	0.7277
2.674	0.72641
2.675	0.72641
2.676	0.72641
2.677	0.72512
2.678	0.72899
2.679	0.7277
2.68	0.7277
2.681	0.736731
2.682	0.747052
2.683	0.757373
2.684	0.762533
2.685	0.758663
2.686	0.766404
2.687	0.781885
2.688	0.798657
2.689	0.810268
2.69	0.810268
2.691	0.812848
2.692	0.816718
2.693	0.820589
2.694	0.825749
2.695	0.825749
2.696	0.823169
2.697	0.828329
2.698	0.83478
2.699	0.830909
2.7	0.83478
2.701	0.847681
2.702	0.865743
2.703	0.885094
2.704	0.899285
2.705	0.896705
2.706	0.891545
2.707	0.886384
2.708	0.878644
2.709	0.874773
2.71	0.883804
2.711	0.891545
2.712	0.897995
2.713	0.901866
2.714	0.901866
2.715	0.896705
2.716	0.914767
2.717	0.958631
2.718	1.01024
2.719	1.04507
2.72	1.04636
2.721	1.03862
2.722	1.04378
2.723	1.05539
2.724	1.06571
2.725	1.05926
2.726	1.05152
2.727	1.03991
2.728	1.02959
2.729	1.02443
2.73	1.03088
2.731	1.03604
2.732	1.0412
2.733	1.04765
2.734	1.0541
2.735	1.06184
2.736	1.06829
2.737	1.05797
2.738	1.04765
2.739	1.03991
2.74	1.04249
2.741	1.04378
2.742	1.04894
2.743	1.05281
2.744	1.05152
2.745	1.03991
2.746	1.0283
2.747	1.02056
2.748	1.01411
2.749	1.00636
2.75	1.00636
2.751	1.00895
2.752	1.01153
2.753	1.01282
2.754	1.01282
2.755	1.00895
2.756	1.00378
2.757	0.999914
2.758	1.0012
2.759	0.997334
2.76	0.990884
2.761	0.987013
2.762	0.989594
2.763	0.992174
2.764	0.994754
2.765	0.985723
2.766	0.974112
2.767	0.970242
2.768	0.980563
2.769	0.988303
2.77	0.984433
2.771	0.976692
2.772	0.966371
2.773	0.957341
2.774	0.94573
2.775	0.936699
2.776	0.930248
2.777	0.925088
2.778	0.921217
2.779	0.913477
2.78	0.914767
2.781	0.918637
2.782	0.921217
2.783	0.925088
2.784	0.927668
2.785	0.918637
2.786	0.908316
2.787	0.900576
2.788	0.892835
2.789	0.887674
2.79	0.890255
2.791	0.894125
2.792	0.899285
2.793	0.901866
2.794	0.904446
2.795	0.904446
2.796	0.899285
2.797	0.900576
2.798	0.904446
2.799	0.900576
2.8	0.895415
2.801	0.892835
2.802	0.887674
2.803	0.879934
2.804	0.885094
2.805	0.900576
2.806	0.912187
2.807	0.921217
2.808	0.925088
2.809	0.923798
2.81	0.922508
2.811	0.923798
2.812	0.926378
2.813	0.921217
2.814	0.912187
2.815	0.909606
2.816	0.912187
2.817	0.904446
2.818	0.896705
2.819	0.895415
2.82	0.905736
2.821	0.910897
2.822	0.910897
2.823	0.910897
2.824	0.904446
2.825	0.903156
2.826	0.905736
2.827	0.909606
2.828	0.909606
2.829	0.904446
2.83	0.908316
2.831	0.916057
2.832	0.926378
2.833	0.934119
2.834	0.941859
2.835	0.94702
2.836	0.94831
2.837	0.939279
2.838	0.930248
2.839	0.925088
2.84	0.928958
2.841	0.932828
2.842	0.934119
2.843	0.934119
2.844	0.927668
2.845	0.922508
2.846	0.921217
2.847	0.923798
2.848	0.922508
2.849	0.916057
2.85	0.913477
2.851	0.910897
2.852	0.901866
2.853	0.895415
2.854	0.892835
2.855	0.899285
2.856	0.908316
2.857	0.925088
2.858	0.940569
2.859	0.940569
2.86	0.930248
2.861	0.926378
2.862	0.921217
2.863	0.913477
2.864	0.905736
2.865	0.904446
2.866	0.904446
2.867	0.904446
2.868	0.900576
2.869	0.897995
2.87	0.887674
2.871	0.878644
2.872	0.867033
2.873	0.856712
2.874	0.847681
2.875	0.83865
2.876	0.8322
2.877	0.829619
2.878	0.828329
2.879	0.824459
2.88	0.829619
2.881	0.83865
2.882	0.846391
2.883	0.855422
2.884	0.859292
2.885	0.850261
2.886	0.83994
2.887	0.83607
2.888	0.846391
2.889	0.860582
2.89	0.863162
2.891	0.856712
2.892	0.852841
2.893	0.858002
2.894	0.868323
2.895	0.873483
2.896	0.868323
2.897	0.873483
2.898	0.881224
2.899	0.883804
2.9	0.873483
2.901	0.865743
2.902	0.864452
2.903	0.868323
2.904	0.872193
2.905	0.868323
2.906	0.865743
2.907	0.858002
2.908	0.851551
2.909	0.850261
2.91	0.858002
2.911	0.869613
2.912	0.883804
2.913	0.896705
2.914	0.909606
2.915	0.918637
2.916	0.923798
2.917	0.917347
2.918	0.905736
2.919	0.901866
2.92	0.901866
2.921	0.894125
2.922	0.899285
2.923	0.917347
2.924	0.939279
2.925	0.967662
2.926	0.989594
2.927	1.00378
2.928	1.00895
2.929	1.00249
2.93	1.00766
2.931	1.01669
2.932	1.02443
2.933	1.03217
2.934	1.03733
2.935	1.03475
2.936	1.02701
2.937	1.03346
2.938	1.04765
2.939	1.05281
2.94	1.04249
2.941	1.03346
2.942	1.02959
2.943	1.03346
2.944	1.03733
2.945	1.0283
2.946	1.01798
2.947	1.00766
2.948	0.999914
2.949	0.990884
2.95	0.981853
2.951	0.971532
2.952	0.963791
2.953	0.961211
2.954	0.963791
2.955	0.967662
2.956	0.968952
2.957	0.959921
2.958	0.95089
2.959	0.944439
2.96	0.944439
2.961	0.944439
2.962	0.941859
2.963	0.939279
2.964	0.932828
2.965	0.928958
2.966	0.930248
2.967	0.931538
2.968	0.937989
2.969	0.958631
2.97	0.989594
2.971	1.02185
2.972	1.04765
2.973	1.05797
2.974	1.0541
2.975	1.04507
2.976	1.04636
2.977	1.04507
2.978	1.04507
2.979	1.05539
2.98	1.07474
2.981	1.07603
2.982	1.07345
2.983	1.0799
2.984	1.09022
2.985	1.1057
2.986	1.11731
2.987	1.1199
2.988	1.11344
2.989	1.10828
2.99	1.11473
2.991	1.12248
2.992	1.12119
2.993	1.1186
2.994	1.11215
2.995	1.10699
2.996	1.1199
2.997	1.16376
2.998	1.22697
2.999	1.30567
3	1.38179
3.001	1.44758
3.002	1.48887
3.003	1.4979
3.004	1.48371
3.005	1.47339
3.006	1.485
3.007	1.51209
3.008	1.54692
3.009	1.59079
3.01	1.63981
3.011	1.68238
3.012	1.71851
3.013	1.74818
3.014	1.76753
3.015	1.78043
3.016	1.7843
3.017	1.77011
3.018	1.75205
3.019	1.73915
3.02	1.73399
3.021	1.72496
3.022	1.71464
3.023	1.70303
3.024	1.68884
3.025	1.66819
3.026	1.64755
3.027	1.62949
3.028	1.61143
3.029	1.59724
3.03	1.59208
3.031	1.5895
3.032	1.58692
3.033	1.58434
3.034	1.57789
3.035	1.56885
3.036	1.55724
3.037	1.54047
3.038	1.53144
3.039	1.51596
3.04	1.50048
3.041	1.48113
3.042	1.46307
3.043	1.44887
3.044	1.43468
3.045	1.42823
3.046	1.41791
3.047	1.41404
3.048	1.41275
3.049	1.40501
3.05	1.39211
3.051	1.37663
3.052	1.36115
3.053	1.3547
3.054	1.34179
3.055	1.33663
3.056	1.34696
3.057	1.38437
3.058	1.42565
3.059	1.45274
3.06	1.4592
3.061	1.45145
3.062	1.43597
3.063	1.42823
3.064	1.42823
3.065	1.42307
3.066	1.42049
3.067	1.41404
3.068	1.4063
3.069	1.40372
3.07	1.39856
3.071	1.38308
3.072	1.36889
3.073	1.35986
3.074	1.34954
3.075	1.33921
3.076	1.33534
3.077	1.34179
3.078	1.34954
3.079	1.34179
3.08	1.33534
3.081	1.33921
3.082	1.34696
3.083	1.35599
3.084	1.36115
3.085	1.35341
3.086	1.34308
3.087	1.33147
3.088	1.31857
3.089	1.31083
3.09	1.3018
3.091	1.28761
3.092	1.28374
3.093	1.29019
3.094	1.29793
3.095	1.30309
3.096	1.30309
3.097	1.31083
3.098	1.31857
3.099	1.31212
3.1	1.29664
3.101	1.28116
3.102	1.27213
3.103	1.26955
3.104	1.26955
3.105	1.26181
3.106	1.25665
3.107	1.25665
3.108	1.25278
3.109	1.25278
3.11	1.25923
3.111	1.2631
3.112	1.26439
3.113	1.25536
3.114	1.24762
3.115	1.25665
3.116	1.27342
3.117	1.30438
3.118	1.34696
3.119	1.40114
3.12	1.45532
3.121	1.5108
3.122	1.55853
3.123	1.59079
3.124	1.61014
3.125	1.60756
3.126	1.59466
3.127	1.59208
3.128	1.59595
3.129	1.61014
3.13	1.63207
3.131	1.65271
3.132	1.6669
3.133	1.67593
3.134	1.67722
3.135	1.67593
3.136	1.66819
3.137	1.65142
3.138	1.63078
3.139	1.61401
3.14	1.59595
3.141	1.5766
3.142	1.55853
3.143	1.54563
3.144	1.53144
3.145	1.51209
3.146	1.49661
3.147	1.48371
3.148	1.4721
3.149	1.4592
3.15	1.44758
3.151	1.44887
3.152	1.45791
3.153	1.46049
3.154	1.45791
3.155	1.46307
3.156	1.46823
3.157	1.47726
3.158	1.49403
3.159	1.50048
3.16	1.50435
3.161	1.51209
3.162	1.52499
3.163	1.54176
3.164	1.55079
3.165	1.56498
3.166	1.57402
3.167	1.57531
3.168	1.56627
3.169	1.55208
3.17	1.5366
3.171	1.51854
3.172	1.51338
3.173	1.51983
3.174	1.52886
3.175	1.53789
3.176	1.54047
3.177	1.52628
3.178	1.50693
3.179	1.48887
3.18	1.47081
3.181	1.45532
3.182	1.44371
3.183	1.43339
3.184	1.41791
3.185	1.41662
3.186	1.42049
3.187	1.42307
3.188	1.42436
3.189	1.41533
3.19	1.42049
3.191	1.42307
3.192	1.42694
3.193	1.4321
3.194	1.4321
3.195	1.41662
3.196	1.41791
3.197	1.43855
3.198	1.46178
3.199	1.4721
3.2	1.47081
3.201	1.46436
3.202	1.44887
3.203	1.44371
3.204	1.43726
3.205	1.42049
3.206	1.41404
3.207	1.4063
3.208	1.39211
3.209	1.3805
3.21	1.36502
3.211	1.35857
3.212	1.35857
3.213	1.35341
3.214	1.3405
3.215	1.33147
3.216	1.32115
3.217	1.30954
3.218	1.31599
3.219	1.32244
3.22	1.33405
3.221	1.35599
3.222	1.37534
3.223	1.3805
3.224	1.37921
3.225	1.3676
3.226	1.35728
3.227	1.35728
3.228	1.35857
3.229	1.36889
3.23	1.3805
3.231	1.38308
3.232	1.38179
3.233	1.36889
3.234	1.35728
3.235	1.35083
3.236	1.34954
3.237	1.3547
3.238	1.35599
3.239	1.34437
3.24	1.33792
3.241	1.33018
3.242	1.32373
3.243	1.32115
3.244	1.31212
3.245	1.29664
3.246	1.28632
3.247	1.27987
3.248	1.27471
3.249	1.26181
3.25	1.25278
3.251	1.24633
3.252	1.23601
3.253	1.23343
3.254	1.24891
3.255	1.27987
3.256	1.31986
3.257	1.36115
3.258	1.39082
3.259	1.38566
3.26	1.38179
3.261	1.3934
3.262	1.40501
3.263	1.41404
3.264	1.40501
3.265	1.39985
3.266	1.39985
3.267	1.39856
3.268	1.38953
3.269	1.3805
3.27	1.38308
3.271	1.38179
3.272	1.37792
3.273	1.37534
3.274	1.36631
3.275	1.35857
3.276	1.34825
3.277	1.3405
3.278	1.33921
3.279	1.32631
3.28	1.31341
3.281	1.3018
3.282	1.29148
3.283	1.28374
3.284	1.27471
3.285	1.27729
3.286	1.29019
3.287	1.30696
3.288	1.32115
3.289	1.31599
3.29	1.30438
3.291	1.29793
3.292	1.29793
3.293	1.29535
3.294	1.28374
3.295	1.26826
3.296	1.26181
3.297	1.26439
3.298	1.26697
3.299	1.25665
3.3	1.25278
3.301	1.2502
3.302	1.24504
3.303	1.2373
3.304	1.22826
3.305	1.23472
3.306	1.24762
3.307	1.25923
3.308	1.26568
3.309	1.25407
3.31	1.24762
3.311	1.24117
3.312	1.23214
3.313	1.21794
3.314	1.20375
3.315	1.18827
3.316	1.17924
3.317	1.18053
3.318	1.18698
3.319	1.18698
3.32	1.17279
3.321	1.15989
3.322	1.15215
3.323	1.14054
3.324	1.13925
3.325	1.15215
3.326	1.17537
3.327	1.1973
3.328	1.2102
3.329	1.20891
3.33	1.19472
3.331	1.17924
3.332	1.16892
3.333	1.17279
3.334	1.18182
3.335	1.18569
3.336	1.18569
3.337	1.22052
3.338	1.26826
3.339	1.30438
3.34	1.32889
3.341	1.3405
3.342	1.33534
3.343	1.32244
3.344	1.32115
3.345	1.31083
3.346	1.29664
3.347	1.28503
3.348	1.27213
3.349	1.27471
3.35	1.28245
3.351	1.27471
3.352	1.2631
3.353	1.25794
3.354	1.26052
3.355	1.26697
3.356	1.27213
3.357	1.28245
3.358	1.28632
3.359	1.27471
3.36	1.26955
3.361	1.2631
3.362	1.25536
3.363	1.2502
3.364	1.2373
3.365	1.2231
3.366	1.21149
3.367	1.20246
3.368	1.19472
3.369	1.18827
3.37	1.18956
3.371	1.18956
3.372	1.18569
3.373	1.17795
3.374	1.16763
3.375	1.15731
3.376	1.14828
3.377	1.14828
3.378	1.14828
3.379	1.13796
3.38	1.12764
3.381	1.11602
3.382	1.10699
3.383	1.09667
3.384	1.08893
3.385	1.08764
3.386	1.09022
3.387	1.09538
3.388	1.09796
3.389	1.08893
3.39	1.07732
3.391	1.07474
3.392	1.07474
3.393	1.08506
3.394	1.09925
3.395	1.11602
3.396	1.14054
3.397	1.16763
3.398	1.18311
3.399	1.18053
3.4	1.16634
3.401	1.15473
3.402	1.1457
3.403	1.13667
3.404	1.12764
3.405	1.12893
3.406	1.13409
3.407	1.14312
3.408	1.14183
3.409	1.13538
3.41	1.13925
3.411	1.15215
3.412	1.16505
3.413	1.17924
3.414	1.18569
3.415	1.18311
3.416	1.17537
3.417	1.1844
3.418	1.20762
3.419	1.22439
3.42	1.2373
3.421	1.25536
3.422	1.27213
3.423	1.27471
3.424	1.26826
3.425	1.25536
3.426	1.24117
3.427	1.22826
3.428	1.21794
3.429	1.20633
3.43	1.19214
3.431	1.18053
3.432	1.17924
3.433	1.17666
3.434	1.16892
3.435	1.1586
3.436	1.15086
3.437	1.15731
3.438	1.15989
3.439	1.15086
3.44	1.14957
3.441	1.14957
3.442	1.1457
3.443	1.14183
3.444	1.1328
3.445	1.13538
3.446	1.14957
3.447	1.16763
3.448	1.1844
3.449	1.18053
3.45	1.16763
3.451	1.15473
3.452	1.1457
3.453	1.14183
3.454	1.13796
3.455	1.12764
3.456	1.11731
3.457	1.1186
3.458	1.12377
3.459	1.11473
3.46	1.10441
3.461	1.09409
3.462	1.08893
3.463	1.07861
3.464	1.06829
3.465	1.06055
3.466	1.04765
3.467	1.03862
3.468	1.0283
3.469	1.02701
3.47	1.0283
3.471	1.0283
3.472	1.0283
3.473	1.03088
3.474	1.03217
3.475	1.03088
3.476	1.02443
3.477	1.02314
3.478	1.02572
3.479	1.01669
3.48	1.00895
3.481	1.00636
3.482	0.999914
3.483	0.992174
3.484	0.987013
3.485	0.994754
3.486	1.01798
3.487	1.05152
3.488	1.09022
3.489	1.11473
3.49	1.13538
3.491	1.15215
3.492	1.15989
3.493	1.15344
3.494	1.14828
3.495	1.15989
3.496	1.16505
3.497	1.16376
3.498	1.15473
3.499	1.15473
3.5	1.15215
3.501	1.14054
3.502	1.12635
3.503	1.11344
3.504	1.10699
3.505	1.10441
3.506	1.10957
3.507	1.12764
3.508	1.16247
3.509	1.18698
3.51	1.20504
3.511	1.22955
3.512	1.24891
3.513	1.25665
3.514	1.26181
3.515	1.26568
3.516	1.27471
3.517	1.27858
3.518	1.26826
3.519	1.28245
3.52	1.3147
3.521	1.34696
3.522	1.37018
3.523	1.38824
3.524	1.38695
3.525	1.37405
3.526	1.35728
3.527	1.34308
3.528	1.33534
3.529	1.31857
3.53	1.30309
3.531	1.29148
3.532	1.28503
3.533	1.27729
3.534	1.26826
3.535	1.25407
3.536	1.24375
3.537	1.23472
3.538	1.22439
3.539	1.21794
3.54	1.2102
3.541	1.20246
3.542	1.19472
3.543	1.19343
3.544	1.18311
3.545	1.17795
3.546	1.17924
3.547	1.18311
3.548	1.18569
3.549	1.17408
3.55	1.15989
3.551	1.15215
3.552	1.15215
3.553	1.15989
3.554	1.17021
3.555	1.17795
3.556	1.18182
3.557	1.18311
3.558	1.17408
3.559	1.17795
3.56	1.1844
3.561	1.19472
3.562	1.20375
3.563	1.21149
3.564	1.20375
3.565	1.18827
3.566	1.17537
3.567	1.16763
3.568	1.16247
3.569	1.15344
3.57	1.14957
3.571	1.1457
3.572	1.14183
3.573	1.13796
3.574	1.13151
3.575	1.12506
3.576	1.11602
3.577	1.11602
3.578	1.11473
3.579	1.10312
3.58	1.0928
3.581	1.08248
3.582	1.07087
3.583	1.06184
3.584	1.07345
3.585	1.09667
3.586	1.12248
3.587	1.14828
3.588	1.16505
3.589	1.16376
3.59	1.15215
3.591	1.14054
3.592	1.13151
3.593	1.11731
3.594	1.10441
3.595	1.09925
3.596	1.08893
3.597	1.07861
3.598	1.06829
3.599	1.06958
3.6	1.07216
3.601	1.067
3.602	1.05668
3.603	1.05281
3.604	1.06313
3.605	1.08764
3.606	1.10828
3.607	1.12119
3.608	1.12119
3.609	1.1199
3.61	1.1328
3.611	1.14441
3.612	1.15473
3.613	1.16118
3.614	1.1586
3.615	1.14699
3.616	1.14828
3.617	1.16892
3.618	1.19472
3.619	1.20246
3.62	1.19601
3.621	1.18311
3.622	1.18182
3.623	1.18698
3.624	1.17924
3.625	1.16505
3.626	1.15473
3.627	1.14957
3.628	1.14054
3.629	1.13925
3.63	1.14312
3.631	1.1457
3.632	1.14699
3.633	1.1457
3.634	1.14183
3.635	1.13796
3.636	1.12764
3.637	1.12377
3.638	1.1186
3.639	1.10828
3.64	1.10183
3.641	1.09667
3.642	1.09151
3.643	1.08635
3.644	1.07732
3.645	1.07345
3.646	1.07345
3.647	1.07603
3.648	1.07603
3.649	1.067
3.65	1.05926
3.651	1.0541
3.652	1.04765
3.653	1.0412
3.654	1.03604
3.655	1.0283
3.656	1.02185
3.657	1.02314
3.658	1.02443
3.659	1.01411
3.66	1.00895
3.661	1.00378
3.662	0.998624
3.663	0.993464
3.664	0.985723
3.665	0.984433
3.666	0.985723
3.667	0.988303
3.668	0.990884
3.669	0.981853
3.67	0.974112
3.671	0.968952
3.672	0.962501
3.673	0.956051
3.674	0.94831
3.675	0.943149
3.676	0.936699
3.677	0.939279
3.678	0.940569
3.679	0.932828
3.68	0.928958
3.681	0.926378
3.682	0.925088
3.683	0.921217
3.684	0.914767
3.685	0.914767
3.686	0.916057
3.687	0.919927
3.688	0.922508
3.689	0.914767
3.69	0.910897
3.691	0.907026
3.692	0.904446
3.693	0.900576
3.694	0.895415
3.695	0.888965
3.696	0.885094
3.697	0.891545
3.698	0.896705
3.699	0.887674
3.7	0.881224
3.701	0.876063
3.702	0.873483
3.703	0.873483
3.704	0.867033
3.705	0.863162
3.706	0.865743
3.707	0.869613
3.708	0.870903
3.709	0.864452
3.71	0.863162
3.711	0.860582
3.712	0.858002
3.713	0.855422
3.714	0.852841
3.715	0.848971
3.716	0.845101
3.717	0.847681
3.718	0.847681
3.719	0.84252
3.72	0.83994
3.721	0.83607
3.722	0.8322
3.723	0.827039
3.724	0.827039
3.725	0.829619
3.726	0.83607
3.727	0.843811
3.728	0.850261
3.729	0.84252
3.73	0.83607
3.731	0.8322
3.732	0.827039
3.733	0.824459
3.734	0.823169
3.735	0.825749
3.736	0.820589
3.737	0.818008
3.738	0.814138
3.739	0.812848
3.74	0.814138
3.741	0.815428
3.742	0.816718
3.743	0.816718
3.744	0.810268
3.745	0.811558
3.746	0.814138
3.747	0.819298
3.748	0.821879
3.749	0.815428
3.75	0.812848
3.751	0.811558
3.752	0.811558
3.753	0.811558
3.754	0.808977
3.755	0.807687
3.756	0.803817
3.757	0.806397
3.758	0.806397
3.759	0.801237
3.76	0.799947
3.761	0.799947
3.762	0.799947
3.763	0.799947
3.764	0.794786
3.765	0.794786
3.766	0.797366
3.767	0.801237
3.768	0.803817
3.769	0.798657
3.77	0.796076
3.771	0.794786
3.772	0.794786
3.773	0.794786
3.774	0.792206
3.775	0.790916
3.776	0.787046
3.777	0.789626
3.778	0.789626
3.779	0.784465
3.78	0.784465
3.781	0.784465
3.782	0.784465
3.783	0.784465
3.784	0.779305
3.785	0.779305
3.786	0.780595
3.787	0.784465
3.788	0.787046
3.789	0.781885
3.79	0.780595
3.791	0.781885
3.792	0.783175
3.793	0.783175
3.794	0.783175
3.795	0.780595
3.796	0.776725
3.797	0.779305
3.798	0.781885
3.799	0.776725
3.8	0.774144
3.801	0.774144
3.802	0.775435
3.803	0.776725
3.804	0.768984
3.805	0.766404
3.806	0.765114
3.807	0.766404
3.808	0.763823
3.809	0.762533
3.81	0.766404
3.811	0.767694
3.812	0.767694
3.813	0.767694
3.814	0.767694
3.815	0.765114
3.816	0.761243
3.817	0.763823
3.818	0.765114
3.819	0.761243
3.82	0.759953
3.821	0.761243
3.822	0.761243
3.823	0.763823
3.824	0.757373
3.825	0.753503
3.826	0.752212
3.827	0.753503
3.828	0.753503
3.829	0.750922
3.83	0.750922
3.831	0.750922
3.832	0.752212
3.833	0.752212
3.834	0.752212
3.835	0.749632
3.836	0.747052
3.837	0.749632
3.838	0.750922
3.839	0.747052
3.84	0.747052
3.841	0.747052
3.842	0.748342
3.843	0.748342
3.844	0.743182
3.845	0.741892
3.846	0.743182
3.847	0.745762
3.848	0.744472
3.849	0.740601
3.85	0.740601
3.851	0.740601
3.852	0.740601
3.853	0.740601
3.854	0.740601
3.855	0.738021
3.856	0.734151
3.857	0.736731
3.858	0.736731
3.859	0.732861
3.86	0.732861
3.861	0.734151
3.862	0.735441
3.863	0.735441
3.864	0.730281
3.865	0.730281
3.866	0.731571
3.867	0.732861
3.868	0.732861
3.869	0.731571
3.87	0.730281
3.871	0.731571
3.872	0.732861
3.873	0.732861
3.874	0.732861
3.875	0.732861
3.876	0.730281
3.877	0.730281
3.878	0.730281
3.879	0.7277
3.88	0.72899
3.881	0.730281
3.882	0.731571
3.883	0.730281
3.884	0.72641
3.885	0.72641
3.886	0.72899
3.887	0.734151
3.888	0.734151
3.889	0.731571
3.89	0.731571
3.891	0.732861
3.892	0.734151
3.893	0.735441
3.894	0.735441
3.895	0.735441
3.896	0.731571
3.897	0.732861
3.898	0.730281
3.899	0.72899
3.9	0.730281
3.901	0.731571
3.902	0.732861
3.903	0.732861
3.904	0.72899
3.905	0.7277
3.906	0.730281
3.907	0.732861
3.908	0.734151
3.909	0.730281
3.91	0.731571
3.911	0.734151
3.912	0.734151
3.913	0.734151
3.914	0.735441
3.915	0.734151
3.916	0.730281
3.917	0.731571
3.918	0.730281
3.919	0.72899
3.92	0.731571
3.921	0.732861
3.922	0.736731
3.923	0.739311
3.924	0.731571
3.925	0.72899
3.926	0.730281
3.927	0.731571
3.928	0.731571
3.929	0.72899
3.93	0.730281
3.931	0.731571
3.932	0.731571
3.933	0.732861
3.934	0.734151
3.935	0.732861
3.936	0.72899
3.937	0.730281
3.938	0.72899
3.939	0.7277
3.94	0.731571
3.941	0.736731
3.942	0.740601
3.943	0.743182
3.944	0.736731
3.945	0.734151
3.946	0.735441
3.947	0.736731
3.948	0.735441
3.949	0.735441
3.95	0.738021
3.951	0.741892
3.952	0.747052
3.953	0.752212
3.954	0.753503
3.955	0.753503
3.956	0.749632
3.957	0.748342
3.958	0.745762
3.959	0.745762
3.96	0.747052
3.961	0.750922
3.962	0.754793
3.963	0.757373
3.964	0.749632
3.965	0.747052
3.966	0.745762
3.967	0.748342
3.968	0.745762
3.969	0.743182
3.97	0.745762
3.971	0.748342
3.972	0.750922
3.973	0.753503
3.974	0.754793
3.975	0.754793
3.976	0.750922
3.977	0.750922
3.978	0.748342
3.979	0.747052
3.98	0.749632
3.981	0.750922
3.982	0.753503
3.983	0.756083
3.984	0.750922
3.985	0.747052
3.986	0.745762
3.987	0.745762
3.988	0.744472
3.989	0.741892
3.99	0.747052
3.991	0.749632
3.992	0.752212
3.993	0.756083
3.994	0.757373
3.995	0.758663
3.996	0.753503
3.997	0.752212
3.998	0.748342
3.999	0.749632
4	0.752212
4.001	0.756083
4.002	0.759953
4.003	0.762533
4.004	0.756083
4.005	0.752212
4.006	0.753503
4.007	0.758663
4.008	0.756083
4.009	0.754793
4.01	0.757373
4.011	0.762533
4.012	0.765114
4.013	0.766404
4.014	0.768984
4.015	0.771564
4.016	0.765114
4.017	0.762533
4.018	0.759953
4.019	0.759953
4.02	0.763823
4.021	0.767694
4.022	0.771564
4.023	0.774144
4.024	0.766404
4.025	0.762533
4.026	0.759953
4.027	0.761243
4.028	0.758663
4.029	0.758663
4.03	0.762533
4.031	0.765114
4.032	0.767694
4.033	0.772854
4.034	0.775435
4.035	0.776725
4.036	0.770274
4.037	0.767694
4.038	0.765114
4.039	0.765114
4.04	0.767694
4.041	0.771564
4.042	0.776725
4.043	0.779305
4.044	0.770274
4.045	0.766404
4.046	0.763823
4.047	0.763823
4.048	0.759953
4.049	0.761243
4.05	0.763823
4.051	0.767694
4.052	0.772854
4.053	0.775435
4.054	0.778015
4.055	0.780595
4.056	0.774144
4.057	0.770274
4.058	0.766404
4.059	0.767694
4.06	0.772854
4.061	0.776725
4.062	0.780595
4.063	0.783175
4.064	0.774144
4.065	0.770274
4.066	0.767694
4.067	0.766404
4.068	0.762533
4.069	0.765114
4.07	0.768984
4.071	0.772854
4.072	0.778015
4.073	0.779305
4.074	0.783175
4.075	0.787046
4.076	0.779305
4.077	0.776725
4.078	0.772854
4.079	0.772854
4.08	0.778015
4.081	0.781885
4.082	0.785755
4.083	0.788336
4.084	0.780595
4.085	0.775435
4.086	0.770274
4.087	0.770274
4.088	0.767694
4.089	0.767694
4.09	0.771564
4.091	0.775435
4.092	0.780595
4.093	0.785755
4.094	0.788336
4.095	0.789626
4.096	0.783175
4.097	0.780595
4.098	0.775435
4.099	0.778015
4.1	0.783175
4.101	0.785755
4.102	0.790916
4.103	0.793496
4.104	0.784465
4.105	0.778015
4.106	0.775435
4.107	0.774144
4.108	0.770274
4.109	0.771564
4.11	0.774144
4.111	0.779305
4.112	0.783175
4.113	0.787046
4.114	0.789626
4.115	0.789626
4.116	0.784465
4.117	0.780595
4.118	0.776725
4.119	0.778015
4.12	0.780595
4.121	0.785755
4.122	0.789626
4.123	0.790916
4.124	0.783175
4.125	0.778015
4.126	0.774144
4.127	0.772854
4.128	0.770274
4.129	0.770274
4.13	0.772854
4.131	0.776725
4.132	0.781885
4.133	0.784465
4.134	0.788336
4.135	0.789626
4.136	0.783175
4.137	0.781885
4.138	0.776725
4.139	0.778015
4.14	0.781885
4.141	0.787046
4.142	0.790916
4.143	0.792206
4.144	0.784465
4.145	0.780595
4.146	0.778015
4.147	0.775435
4.148	0.771564
4.149	0.772854
4.15	0.778015
4.151	0.781885
4.152	0.785755
4.153	0.790916
4.154	0.792206
4.155	0.793496
4.156	0.787046
4.157	0.784465
4.158	0.780595
4.159	0.780595
4.16	0.784465
4.161	0.789626
4.162	0.793496
4.163	0.796076
4.164	0.787046
4.165	0.780595
4.166	0.778015
4.167	0.775435
4.168	0.771564
4.169	0.772854
4.17	0.776725
4.171	0.780595
4.172	0.784465
4.173	0.787046
4.174	0.790916
4.175	0.792206
4.176	0.785755
4.177	0.784465
4.178	0.779305
4.179	0.780595
4.18	0.785755
4.181	0.789626
4.182	0.793496
4.183	0.796076
4.184	0.788336
4.185	0.783175
4.186	0.780595
4.187	0.779305
4.188	0.775435
4.189	0.776725
4.19	0.780595
4.191	0.785755
4.192	0.788336
4.193	0.793496
4.194	0.794786
4.195	0.796076
4.196	0.789626
4.197	0.788336
4.198	0.785755
4.199	0.785755
4.2	0.789626
4.201	0.793496
4.202	0.798657
4.203	0.799947
4.204	0.792206
4.205	0.787046
4.206	0.785755
4.207	0.784465
4.208	0.781885
4.209	0.781885
4.21	0.784465
4.211	0.787046
4.212	0.790916
4.213	0.793496
4.214	0.794786
4.215	0.794786
4.216	0.789626
4.217	0.788336
4.218	0.784465
4.219	0.784465
4.22	0.787046
4.221	0.790916
4.222	0.793496
4.223	0.794786
4.224	0.787046
4.225	0.783175
4.226	0.781885
4.227	0.781885
4.228	0.778015
4.229	0.778015
4.23	0.781885
4.231	0.784465
4.232	0.788336
4.233	0.789626
4.234	0.792206
4.235	0.792206
4.236	0.787046
4.237	0.785755
4.238	0.781885
4.239	0.783175
4.24	0.785755
4.241	0.789626
4.242	0.792206
4.243	0.790916
4.244	0.784465
4.245	0.780595
4.246	0.780595
4.247	0.780595
4.248	0.775435
4.249	0.776725
4.25	0.779305
4.251	0.783175
4.252	0.785755
4.253	0.789626
4.254	0.790916
4.255	0.790916
4.256	0.785755
4.257	0.784465
4.258	0.779305
4.259	0.780595
4.26	0.783175
4.261	0.785755
4.262	0.788336
4.263	0.788336
4.264	0.780595
4.265	0.775435
4.266	0.774144
4.267	0.774144
4.268	0.770274
4.269	0.770274
4.27	0.772854
4.271	0.775435
4.272	0.778015
4.273	0.780595
4.274	0.781885
4.275	0.780595
4.276	0.776725
4.277	0.775435
4.278	0.770274
4.279	0.770274
4.28	0.772854
4.281	0.776725
4.282	0.779305
4.283	0.778015
4.284	0.772854
4.285	0.768984
4.286	0.768984
4.287	0.767694
4.288	0.765114
4.289	0.765114
4.29	0.766404
4.291	0.770274
4.292	0.772854
4.293	0.775435
4.294	0.775435
4.295	0.775435
4.296	0.771564
4.297	0.770274
4.298	0.766404
4.299	0.766404
4.3	0.768984
4.301	0.770274
4.302	0.774144
4.303	0.774144
4.304	0.768984
4.305	0.763823
4.306	0.763823
4.307	0.765114
4.308	0.761243
4.309	0.761243
4.31	0.762533
4.311	0.765114
4.312	0.766404
4.313	0.768984
4.314	0.770274
4.315	0.768984
4.316	0.765114
4.317	0.763823
4.318	0.758663
4.319	0.759953
4.32	0.761243
4.321	0.765114
4.322	0.766404
4.323	0.765114
4.324	0.759953
4.325	0.756083
4.326	0.756083
4.327	0.757373
4.328	0.753503
4.329	0.753503
4.33	0.756083
4.331	0.758663
4.332	0.759953
4.333	0.761243
4.334	0.759953
4.335	0.758663
4.336	0.756083
4.337	0.758663
4.338	0.754793
4.339	0.754793
4.34	0.754793
4.341	0.757373
4.342	0.758663
4.343	0.757373
4.344	0.750922
4.345	0.749632
4.346	0.748342
4.347	0.747052
4.348	0.744472
4.349	0.744472
4.35	0.747052
4.351	0.749632
4.352	0.750922
4.353	0.753503
4.354	0.753503
4.355	0.753503
4.356	0.749632
4.357	0.749632
4.358	0.745762
4.359	0.747052
4.36	0.748342
4.361	0.749632
4.362	0.752212
4.363	0.750922
4.364	0.745762
4.365	0.744472
4.366	0.744472
4.367	0.745762
4.368	0.741892
4.369	0.740601
4.37	0.743182
4.371	0.744472
4.372	0.745762
4.373	0.745762
4.374	0.747052
4.375	0.744472
4.376	0.745762
4.377	0.752212
4.378	0.749632
4.379	0.748342
4.38	0.749632
4.381	0.752212
4.382	0.753503
4.383	0.750922
4.384	0.747052
4.385	0.745762
4.386	0.747052
4.387	0.748342
4.388	0.744472
4.389	0.744472
4.39	0.744472
4.391	0.745762
4.392	0.748342
4.393	0.749632
4.394	0.748342
4.395	0.747052
4.396	0.744472
4.397	0.745762
4.398	0.741892
4.399	0.740601
4.4	0.741892
4.401	0.744472
4.402	0.745762
4.403	0.743182
4.404	0.739311
4.405	0.738021
4.406	0.739311
4.407	0.741892
4.408	0.739311
4.409	0.738021
4.41	0.738021
4.411	0.739311
4.412	0.739311
4.413	0.740601
4.414	0.739311
4.415	0.736731
4.416	0.735441
4.417	0.736731
4.418	0.734151
4.419	0.734151
4.42	0.734151
4.421	0.734151
4.422	0.735441
4.423	0.731571
4.424	0.72899
4.425	0.72899
4.426	0.730281
4.427	0.734151
4.428	0.730281
4.429	0.7277
4.43	0.72899
4.431	0.730281
4.432	0.731571
4.433	0.731571
4.434	0.731571
4.435	0.72899
4.436	0.72641
4.437	0.72899
4.438	0.72512
4.439	0.72512
4.44	0.72512
4.441	0.72641
4.442	0.72641
4.443	0.72512
4.444	0.72125
4.445	0.72125
4.446	0.72383
4.447	0.72641
4.448	0.72254
4.449	0.72254
4.45	0.72254
4.451	0.72383
4.452	0.72641
4.453	0.72641
4.454	0.72512
4.455	0.72254
4.456	0.72125
4.457	0.72512
4.458	0.72125
4.459	0.71996
4.46	0.72125
4.461	0.72254
4.462	0.72254
4.463	0.71996
4.464	0.716089
4.465	0.717379
4.466	0.71996
4.467	0.72254
4.468	0.71996
4.469	0.718669
4.47	0.71996
4.471	0.718669
4.472	0.71996
4.473	0.71996
4.474	0.718669
4.475	0.716089
4.476	0.716089
4.477	0.718669
4.478	0.713509
4.479	0.713509
4.48	0.713509
4.481	0.713509
4.482	0.714799
4.483	0.710929
4.484	0.709639
4.485	0.710929
4.486	0.713509
4.487	0.717379
4.488	0.714799
4.489	0.713509
4.49	0.713509
4.491	0.713509
4.492	0.713509
4.493	0.713509
4.494	0.712219
4.495	0.709639
4.496	0.710929
4.497	0.713509
4.498	0.710929
4.499	0.708349
4.5	0.709639
4.501	0.709639
4.502	0.710929
4.503	0.708349
4.504	0.707058
4.505	0.707058
4.506	0.710929
4.507	0.716089
4.508	0.712219
4.509	0.709639
4.51	0.709639
4.511	0.709639
4.512	0.708349
4.513	0.707058
4.514	0.705768
4.515	0.701898
4.516	0.703188
4.517	0.705768
4.518	0.703188
4.519	0.700608
4.52	0.700608
4.521	0.701898
4.522	0.701898
4.523	0.698028
4.524	0.699318
4.525	0.699318
4.526	0.703188
4.527	0.708349
4.528	0.704478
4.529	0.701898
4.53	0.701898
4.531	0.705768
4.532	0.709639
4.533	0.713509
4.534	0.714799
4.535	0.710929
4.536	0.710929
4.537	0.717379
4.538	0.714799
4.539	0.709639
4.54	0.705768
4.541	0.703188
4.542	0.700608
4.543	0.696738
4.544	0.698028
4.545	0.701898
4.546	0.705768
4.547	0.710929
4.548	0.708349
4.549	0.705768
4.55	0.704478
4.551	0.703188
4.552	0.700608
4.553	0.698028
4.554	0.694157
4.555	0.690287
4.556	0.692867
4.557	0.698028
4.558	0.692867
4.559	0.694157
4.56	0.696738
4.561	0.698028
4.562	0.698028
4.563	0.694157
4.564	0.694157
4.565	0.698028
4.566	0.699318
4.567	0.699318
4.568	0.698028
4.569	0.701898
4.57	0.704478
4.571	0.703188
4.572	0.696738
4.573	0.688997
4.574	0.683836
4.575	0.679966
4.576	0.686417
4.577	0.692867
4.578	0.690287
4.579	0.687707
4.58	0.686417
4.581	0.686417
4.582	0.685127
4.583	0.679966
4.584	0.682546
4.585	0.685127
4.586	0.688997
4.587	0.691577
4.588	0.688997
4.589	0.691577
4.59	0.698028
4.591	0.703188
4.592	0.708349
4.593	0.712219
4.594	0.712219
4.595	0.709639
4.596	0.710929
4.597	0.714799
4.598	0.712219
4.599	0.709639
4.6	0.709639
4.601	0.709639
4.602	0.708349
4.603	0.704478
4.604	0.704478
4.605	0.704478
4.606	0.707058
4.607	0.710929
4.608	0.707058
4.609	0.703188
4.61	0.698028
4.611	0.695447
4.612	0.695447
4.613	0.698028
4.614	0.698028
4.615	0.695447
4.616	0.695447
4.617	0.696738
4.618	0.694157
4.619	0.691577
4.62	0.692867
4.621	0.692867
4.622	0.691577
4.623	0.688997
4.624	0.688997
4.625	0.691577
4.626	0.699318
4.627	0.707058
4.628	0.705768
4.629	0.698028
4.63	0.694157
4.631	0.690287
4.632	0.685127
4.633	0.678676
4.634	0.674806
4.635	0.670935
4.636	0.674806
4.637	0.679966
4.638	0.677386
4.639	0.677386
4.64	0.678676
4.641	0.674806
4.642	0.667065
4.643	0.663195
4.644	0.667065
4.645	0.670935
4.646	0.672225
4.647	0.672225
4.648	0.670935
4.649	0.673515
4.65	0.673515
4.651	0.670935
4.652	0.668355
4.653	0.660614
4.654	0.655454
4.655	0.651584
4.656	0.660614
4.657	0.673515
4.658	0.677386
4.659	0.670935
4.66	0.667065
4.661	0.661904
4.662	0.658034
4.663	0.654164
4.664	0.659324
4.665	0.661904
4.666	0.663195
4.667	0.658034
4.668	0.663195
4.669	0.677386
4.67	0.688997
4.671	0.694157
4.672	0.694157
4.673	0.692867
4.674	0.695447
4.675	0.698028
4.676	0.695447
4.677	0.704478
4.678	0.705768
4.679	0.705768
4.68	0.704478
4.681	0.699318
4.682	0.695447
4.683	0.691577
4.684	0.683836
4.685	0.678676
4.686	0.673515
4.687	0.668355
4.688	0.665775
4.689	0.665775
4.69	0.664485
4.691	0.659324
4.692	0.654164
4.693	0.649003
4.694	0.647713
4.695	0.643843
4.696	0.645133
4.697	0.646423
4.698	0.643843
4.699	0.647713
4.7	0.654164
4.701	0.656744
4.702	0.655454
4.703	0.650293
4.704	0.652874
4.705	0.652874
4.706	0.654164
4.707	0.655454
4.708	0.651584
4.709	0.655454
4.71	0.661904
4.711	0.665775
4.712	0.670935
4.713	0.676096
4.714	0.679966
4.715	0.679966
4.716	0.692867
4.717	0.716089
4.718	0.7277
4.719	0.730281
4.72	0.72641
4.721	0.72125
4.722	0.72125
4.723	0.71996
4.724	0.712219
4.725	0.704478
4.726	0.700608
4.727	0.696738
4.728	0.694157
4.729	0.695447
4.73	0.698028
4.731	0.701898
4.732	0.705768
4.733	0.712219
4.734	0.717379
4.735	0.714799
4.736	0.716089
4.737	0.72899
4.738	0.734151
4.739	0.731571
4.74	0.7277
4.741	0.72383
4.742	0.72125
4.743	0.72125
4.744	0.7277
4.745	0.734151
4.746	0.739311
4.747	0.748342
4.748	0.744472
4.749	0.736731
4.75	0.72899
4.751	0.72254
4.752	0.714799
4.753	0.707058
4.754	0.700608
4.755	0.696738
4.756	0.696738
4.757	0.692867
4.758	0.690287
4.759	0.690287
4.76	0.692867
4.761	0.696738
4.762	0.700608
4.763	0.700608
4.764	0.694157
4.765	0.687707
4.766	0.682546
4.767	0.679966
4.768	0.679966
4.769	0.690287
4.77	0.700608
4.771	0.710929
4.772	0.718669
4.773	0.72641
4.774	0.731571
4.775	0.730281
4.776	0.72641
4.777	0.72641
4.778	0.72254
4.779	0.7277
4.78	0.735441
4.781	0.744472
4.782	0.753503
4.783	0.750922
4.784	0.748342
4.785	0.749632
4.786	0.754793
4.787	0.763823
4.788	0.765114
4.789	0.763823
4.79	0.767694
4.791	0.771564
4.792	0.772854
4.793	0.781885
4.794	0.789626
4.795	0.798657
4.796	0.811558
4.797	0.819298
4.798	0.815428
4.799	0.820589
4.8	0.8322
4.801	0.846391
4.802	0.859292
4.803	0.858002
4.804	0.852841
4.805	0.850261
4.806	0.848971
4.807	0.846391
4.808	0.843811
4.809	0.850261
4.81	0.858002
4.811	0.864452
4.812	0.867033
4.813	0.861872
4.814	0.851551
4.815	0.850261
4.816	0.864452
4.817	0.878644
4.818	0.879934
4.819	0.874773
4.82	0.874773
4.821	0.870903
4.822	0.863162
4.823	0.855422
4.824	0.848971
4.825	0.84123
4.826	0.83349
4.827	0.827039
4.828	0.83478
4.829	0.848971
4.83	0.856712
4.831	0.856712
4.832	0.850261
4.833	0.83994
4.834	0.8322
4.835	0.828329
4.836	0.83349
4.837	0.83607
4.838	0.829619
4.839	0.829619
4.84	0.830909
4.841	0.83349
4.842	0.83349
4.843	0.828329
4.844	0.821879
4.845	0.816718
4.846	0.810268
4.847	0.808977
4.848	0.803817
4.849	0.799947
4.85	0.802527
4.851	0.821879
4.852	0.847681
4.853	0.872193
4.854	0.888965
4.855	0.903156
4.856	0.914767
4.857	0.921217
4.858	0.916057
4.859	0.918637
4.86	0.934119
4.861	0.95347
4.862	0.970242
4.863	0.977982
4.864	0.976692
4.865	0.974112
4.866	0.970242
4.867	0.963791
4.868	0.968952
4.869	0.977982
4.87	0.988303
4.871	0.996044
4.872	1.0012
4.873	1.00249
4.874	0.994754
4.875	1.00895
4.876	1.0412
4.877	1.07603
4.878	1.09667
4.879	1.10054
4.88	1.09796
4.881	1.08635
4.882	1.0799
4.883	1.07216
4.884	1.05926
4.885	1.04765
4.886	1.03733
4.887	1.02701
4.888	1.0154
4.889	1.00249
4.89	0.992174
4.891	0.984433
4.892	0.975402
4.893	0.972822
4.894	0.976692
4.895	0.970242
4.896	0.962501
4.897	0.95347
4.898	0.9496
4.899	0.95089
4.9	0.943149
4.901	0.930248
4.902	0.921217
4.903	0.914767
4.904	0.910897
4.905	0.907026
4.906	0.903156
4.907	0.894125
4.908	0.894125
4.909	0.900576
4.91	0.907026
4.911	0.914767
4.912	0.919927
4.913	0.912187
4.914	0.908316
4.915	0.916057
4.916	0.931538
4.917	0.944439
4.918	0.937989
4.919	0.935409
4.92	0.937989
4.921	0.94573
4.922	0.957341
4.923	0.95476
4.924	0.944439
4.925	0.935409
4.926	0.928958
4.927	0.921217
4.928	0.917347
4.929	0.918637
4.93	0.909606
4.931	0.908316
4.932	0.913477
4.933	0.917347
4.934	0.919927
4.935	0.925088
4.936	0.935409
4.937	0.941859
4.938	0.935409
4.939	0.925088
4.94	0.927668
4.941	0.95089
4.942	0.977982
4.943	1.00636
4.944	1.0283
4.945	1.0412
4.946	1.05539
4.947	1.06571
4.948	1.05926
4.949	1.05797
4.95	1.06442
4.951	1.07861
4.952	1.09151
4.953	1.09796
4.954	1.10183
4.955	1.09925
4.956	1.09022
4.957	1.08893
4.958	1.07861
4.959	1.06829
4.96	1.06184
4.961	1.05539
4.962	1.04378
4.963	1.04249
4.964	1.04636
4.965	1.05023
4.966	1.05797
4.967	1.06442
4.968	1.05539
4.969	1.04765
4.97	1.03862
4.971	1.0283
4.972	1.0283
4.973	1.02572
4.974	1.01669
4.975	1.01282
4.976	1.02443
4.977	1.03733
4.978	1.03991
4.979	1.03604
4.98	1.02701
4.981	1.01798
4.982	1.02314
4.983	1.02701
4.984	1.02185
4.985	1.01411
4.986	1.00378
4.987	0.993464
4.988	0.997334
4.989	1.00895
4.99	1.0283
4.991	1.05152
4.992	1.07474
4.993	1.09409
4.994	1.10441
4.995	1.09925
4.996	1.08893
4.997	1.08119
4.998	1.06829
4.999	1.07603
5	1.10054
5.001	1.12893
5.002	1.15086
5.003	1.17408
5.004	1.19214
5.005	1.19343
5.006	1.1844
5.007	1.17537
5.008	1.1844
5.009	1.20375
5.01	1.22439
5.011	1.24633
5.012	1.26955
5.013	1.29148
5.014	1.30825
5.015	1.30438
5.016	1.29019
5.017	1.28245
5.018	1.26955
5.019	1.25407
5.02	1.24375
5.021	1.23472
5.022	1.22955
5.023	1.23988
5.024	1.25407
5.025	1.26568
5.026	1.27342
5.027	1.27342
5.028	1.26181
5.029	1.25407
5.03	1.24633
5.031	1.24246
5.032	1.24375
5.033	1.24375
5.034	1.23472
5.035	1.24504
5.036	1.27213
5.037	1.29793
5.038	1.31212
5.039	1.32244
5.04	1.33147
5.041	1.32889
5.042	1.32115
5.043	1.31728
5.044	1.31212
5.045	1.29922
5.046	1.28632
5.047	1.27858
5.048	1.28245
5.049	1.29277
5.05	1.30438
5.051	1.31341
5.052	1.31728
5.053	1.32244
5.054	1.32502
5.055	1.3147
5.056	1.30567
5.057	1.30438
5.058	1.3018
5.059	1.30567
5.06	1.31212
5.061	1.31857
5.062	1.31986
5.063	1.33018
5.064	1.35083
5.065	1.36502
5.066	1.37018
5.067	1.36502
5.068	1.35857
5.069	1.36502
5.07	1.35599
5.071	1.35599
5.072	1.37147
5.073	1.38695
5.074	1.38437
5.075	1.38179
5.076	1.38953
5.077	1.39211
5.078	1.3805
5.079	1.36889
5.08	1.37534
5.081	1.3934
5.082	1.4063
5.083	1.41146
5.084	1.41662
5.085	1.42049
5.086	1.41533
5.087	1.40243
5.088	1.39727
5.089	1.40114
5.09	1.41017
5.091	1.42178
5.092	1.42952
5.093	1.43081
5.094	1.43081
5.095	1.42049
5.096	1.40372
5.097	1.38953
5.098	1.39469
5.099	1.41404
5.1	1.4321
5.101	1.44758
5.102	1.45661
5.103	1.44242
5.104	1.42823
5.105	1.4192
5.106	1.41404
5.107	1.41404
5.108	1.40759
5.109	1.40372
5.11	1.39727
5.111	1.38695
5.112	1.37663
5.113	1.36115
5.114	1.34567
5.115	1.33147
5.116	1.32115
5.117	1.31083
5.118	1.29664
5.119	1.2889
5.12	1.27858
5.121	1.2631
5.122	1.24762
5.123	1.24117
5.124	1.2373
5.125	1.23343
5.126	1.23214
5.127	1.22826
5.128	1.21407
5.129	1.20246
5.13	1.19859
5.131	1.20633
5.132	1.21794
5.133	1.22826
5.134	1.22955
5.135	1.23343
5.136	1.23601
5.137	1.23472
5.138	1.22181
5.139	1.21536
5.14	1.20633
5.141	1.19343
5.142	1.17666
5.143	1.17537
5.144	1.18182
5.145	1.19601
5.146	1.21923
5.147	1.23859
5.148	1.24504
5.149	1.27213
5.15	1.32889
5.151	1.37792
5.152	1.39727
5.153	1.38824
5.154	1.38953
5.155	1.39727
5.156	1.4063
5.157	1.41017
5.158	1.42178
5.159	1.42952
5.16	1.44371
5.161	1.47081
5.162	1.49016
5.163	1.47726
5.164	1.47855
5.165	1.49145
5.166	1.50564
5.167	1.51338
5.168	1.4979
5.169	1.49016
5.17	1.48887
5.171	1.485
5.172	1.47726
5.173	1.46178
5.174	1.445
5.175	1.44371
5.176	1.45532
5.177	1.46823
5.178	1.46436
5.179	1.44758
5.18	1.43081
5.181	1.41404
5.182	1.39856
5.183	1.39082
5.184	1.38179
5.185	1.36631
5.186	1.35341
5.187	1.34308
5.188	1.34954
5.189	1.35212
5.19	1.34825
5.191	1.34179
5.192	1.33663
5.193	1.33276
5.194	1.32244
5.195	1.31728
5.196	1.32631
5.197	1.33921
5.198	1.3405
5.199	1.33276
5.2	1.32244
5.201	1.31341
5.202	1.30438
5.203	1.30567
5.204	1.31212
5.205	1.3147
5.206	1.31083
5.207	1.30438
5.208	1.29793
5.209	1.30438
5.21	1.32502
5.211	1.34825
5.212	1.35986
5.213	1.36244
5.214	1.35341
5.215	1.33921
5.216	1.33663
5.217	1.33405
5.218	1.34308
5.219	1.35599
5.22	1.36631
5.221	1.36502
5.222	1.35728
5.223	1.34696
5.224	1.34567
5.225	1.35212
5.226	1.35986
5.227	1.36631
5.228	1.3547
5.229	1.3405
5.23	1.32889
5.231	1.32889
5.232	1.33276
5.233	1.33147
5.234	1.32244
5.235	1.31986
5.236	1.3147
5.237	1.30051
5.238	1.29406
5.239	1.2889
5.24	1.27858
5.241	1.27084
5.242	1.29148
5.243	1.3276
5.244	1.35857
5.245	1.38308
5.246	1.39469
5.247	1.38695
5.248	1.38953
5.249	1.40243
5.25	1.41146
5.251	1.41662
5.252	1.41662
5.253	1.40759
5.254	1.39211
5.255	1.38695
5.256	1.38953
5.257	1.38824
5.258	1.37276
5.259	1.35986
5.26	1.35083
5.261	1.34179
5.262	1.3276
5.263	1.33405
5.264	1.35212
5.265	1.37534
5.266	1.40243
5.267	1.42178
5.268	1.42178
5.269	1.40759
5.27	1.39211
5.271	1.38179
5.272	1.37405
5.273	1.36244
5.274	1.34825
5.275	1.34308
5.276	1.35728
5.277	1.37276
5.278	1.36889
5.279	1.3547
5.28	1.33921
5.281	1.32631
5.282	1.31857
5.283	1.31212
5.284	1.31341
5.285	1.31728
5.286	1.3276
5.287	1.33405
5.288	1.31986
5.289	1.3147
5.29	1.31857
5.291	1.33276
5.292	1.34696
5.293	1.34437
5.294	1.33276
5.295	1.33276
5.296	1.32889
5.297	1.31857
5.298	1.3276
5.299	1.34179
5.3	1.35212
5.301	1.3547
5.302	1.3405
5.303	1.34179
5.304	1.34567
5.305	1.34696
5.306	1.35341
5.307	1.35728
5.308	1.34437
5.309	1.33018
5.31	1.31857
5.311	1.31083
5.312	1.30696
5.313	1.30438
5.314	1.30051
5.315	1.2889
5.316	1.27858
5.317	1.26955
5.318	1.25923
5.319	1.25149
5.32	1.24246
5.321	1.23084
5.322	1.21794
5.323	1.2231
5.324	1.23214
5.325	1.24504
5.326	1.25794
5.327	1.26439
5.328	1.25278
5.329	1.23859
5.33	1.22697
5.331	1.22181
5.332	1.21407
5.333	1.19988
5.334	1.18569
5.335	1.17795
5.336	1.1715
5.337	1.16634
5.338	1.15086
5.339	1.13796
5.34	1.12506
5.341	1.11215
5.342	1.09925
5.343	1.10699
5.344	1.12635
5.345	1.14957
5.346	1.16892
5.347	1.17537
5.348	1.16247
5.349	1.15215
5.35	1.14054
5.351	1.12764
5.352	1.12506
5.353	1.12635
5.354	1.12764
5.355	1.14699
5.356	1.17666
5.357	1.20246
5.358	1.20375
5.359	1.19343
5.36	1.18827
5.361	1.18569
5.362	1.1973
5.363	1.19859
5.364	1.18698
5.365	1.17408
5.366	1.16634
5.367	1.16118
5.368	1.14699
5.369	1.1328
5.37	1.1199
5.371	1.11215
5.372	1.11215
5.373	1.11215
5.374	1.1057
5.375	1.10828
5.376	1.11215
5.377	1.10957
5.378	1.10054
5.379	1.09151
5.38	1.07861
5.381	1.06958
5.382	1.067
5.383	1.08506
5.384	1.11086
5.385	1.13538
5.386	1.14957
5.387	1.15473
5.388	1.14312
5.389	1.13667
5.39	1.14054
5.391	1.1457
5.392	1.15344
5.393	1.16376
5.394	1.17279
5.395	1.16118
5.396	1.15344
5.397	1.1457
5.398	1.14054
5.399	1.13667
5.4	1.13151
5.401	1.12506
5.402	1.11731
5.403	1.12248
5.404	1.13667
5.405	1.15989
5.406	1.18569
5.407	1.19859
5.408	1.18827
5.409	1.1844
5.41	1.1844
5.411	1.18053
5.412	1.16763
5.413	1.15602
5.414	1.14957
5.415	1.16118
5.416	1.17666
5.417	1.18311
5.418	1.1715
5.419	1.16118
5.42	1.16247
5.421	1.17021
5.422	1.17924
5.423	1.16892
5.424	1.15989
5.425	1.15731
5.426	1.15989
5.427	1.16118
5.428	1.15086
5.429	1.14312
5.43	1.15086
5.431	1.17537
5.432	1.21407
5.433	1.25149
5.434	1.28374
5.435	1.31728
5.436	1.32631
5.437	1.31728
5.438	1.33405
5.439	1.36244
5.44	1.38953
5.441	1.41146
5.442	1.42436
5.443	1.41404
5.444	1.39598
5.445	1.38824
5.446	1.38824
5.447	1.38953
5.448	1.38179
5.449	1.37405
5.45	1.3676
5.451	1.35857
5.452	1.34437
5.453	1.33018
5.454	1.32373
5.455	1.31212
5.456	1.29793
5.457	1.28503
5.458	1.27987
5.459	1.27213
5.46	1.26697
5.461	1.25923
5.462	1.24762
5.463	1.24246
5.464	1.24246
5.465	1.24375
5.466	1.24504
5.467	1.23859
5.468	1.22826
5.469	1.21923
5.47	1.21149
5.471	1.20117
5.472	1.19085
5.473	1.18182
5.474	1.17021
5.475	1.16505
5.476	1.1715
5.477	1.17666
5.478	1.16892
5.479	1.15731
5.48	1.14441
5.481	1.13151
5.482	1.1186
5.483	1.1186
5.484	1.12506
5.485	1.13151
5.486	1.13022
5.487	1.12248
5.488	1.11215
5.489	1.1057
5.49	1.1057
5.491	1.10828
5.492	1.10957
5.493	1.10699
5.494	1.09925
5.495	1.09667
5.496	1.09925
5.497	1.10054
5.498	1.08893
5.499	1.08119
5.5	1.07603
5.501	1.067
5.502	1.07216
5.503	1.10312
5.504	1.15344
5.505	1.2102
5.506	1.26568
5.507	1.30051
5.508	1.3018
5.509	1.29148
5.51	1.29406
5.511	1.30309
5.512	1.31728
5.513	1.33792
5.514	1.35728
5.515	1.35599
5.516	1.34437
5.517	1.33147
5.518	1.32889
5.519	1.3276
5.52	1.32373
5.521	1.31857
5.522	1.30954
5.523	1.30051
5.524	1.29922
5.525	1.30954
5.526	1.32502
5.527	1.33663
5.528	1.33534
5.529	1.33663
5.53	1.34825
5.531	1.36373
5.532	1.37147
5.533	1.37276
5.534	1.35857
5.535	1.34567
5.536	1.33018
5.537	1.3276
5.538	1.34179
5.539	1.36244
5.54	1.37405
5.541	1.36889
5.542	1.3547
5.543	1.35599
5.544	1.36115
5.545	1.36502
5.546	1.36244
5.547	1.35083
5.548	1.34437
5.549	1.34567
5.55	1.34954
5.551	1.35083
5.552	1.35212
5.553	1.34696
5.554	1.33792
5.555	1.3276
5.556	1.32115
5.557	1.31341
5.558	1.30051
5.559	1.29277
5.56	1.28374
5.561	1.27471
5.562	1.26439
5.563	1.25794
5.564	1.25794
5.565	1.25794
5.566	1.25923
5.567	1.25665
5.568	1.24117
5.569	1.22826
5.57	1.21794
5.571	1.21149
5.572	1.19988
5.573	1.18956
5.574	1.17795
5.575	1.17795
5.576	1.1844
5.577	1.18569
5.578	1.17537
5.579	1.17279
5.58	1.17924
5.581	1.18569
5.582	1.19214
5.583	1.20891
5.584	1.22697
5.585	1.24117
5.586	1.2502
5.587	1.24891
5.588	1.23859
5.589	1.23859
5.59	1.25278
5.591	1.27342
5.592	1.28761
5.593	1.29793
5.594	1.29793
5.595	1.28761
5.596	1.2889
5.597	1.2889
5.598	1.276
5.599	1.2631
5.6	1.25536
5.601	1.25278
5.602	1.25278
5.603	1.23859
5.604	1.22439
5.605	1.21536
5.606	1.20762
5.607	1.19859
5.608	1.18956
5.609	1.18311
5.61	1.17666
5.611	1.16634
5.612	1.15344
5.613	1.1457
5.614	1.14441
5.615	1.16505
5.616	1.19472
5.617	1.21665
5.618	1.22697
5.619	1.22955
5.62	1.21923
5.621	1.20762
5.622	1.20504
5.623	1.19601
5.624	1.18956
5.625	1.17924
5.626	1.16892
5.627	1.15989
5.628	1.16118
5.629	1.16376
5.63	1.16505
5.631	1.16118
5.632	1.15602
5.633	1.14828
5.634	1.13925
5.635	1.13409
5.636	1.13667
5.637	1.13409
5.638	1.12248
5.639	1.11473
5.64	1.10957
5.641	1.09925
5.642	1.08893
5.643	1.09538
5.644	1.11086
5.645	1.13022
5.646	1.14828
5.647	1.15473
5.648	1.14312
5.649	1.13151
5.65	1.12248
5.651	1.11731
5.652	1.12248
5.653	1.12635
5.654	1.12506
5.655	1.11215
5.656	1.10312
5.657	1.09538
5.658	1.09151
5.659	1.08893
5.66	1.08248
5.661	1.07603
5.662	1.067
5.663	1.06571
5.664	1.06829
5.665	1.07474
5.666	1.08764
5.667	1.09925
5.668	1.09925
5.669	1.09796
5.67	1.09538
5.671	1.08506
5.672	1.07732
5.673	1.07345
5.674	1.07732
5.675	1.06571
5.676	1.05539
5.677	1.04636
5.678	1.04507
5.679	1.04765
5.68	1.04636
5.681	1.03862
5.682	1.02959
5.683	1.03346
5.684	1.04507
5.685	1.05797
5.686	1.06829
5.687	1.06958
5.688	1.05926
5.689	1.05797
5.69	1.06313
5.691	1.06829
5.692	1.06958
5.693	1.067
5.694	1.05926
5.695	1.05539
5.696	1.05797
5.697	1.0541
5.698	1.04249
5.699	1.03475
5.7	1.02572
5.701	1.02056
5.702	1.01153
5.703	1.01153
5.704	1.0154
5.705	1.02443
5.706	1.03217
5.707	1.03862
5.708	1.03733
5.709	1.03604
5.71	1.03733
5.711	1.03475
5.712	1.0283
5.713	1.01798
5.714	1.00766
5.715	1.00249
5.716	0.998624
5.717	0.990884
5.718	0.988303
5.719	0.989594
5.72	0.994754
5.721	1.00766
5.722	1.01669
5.723	1.00636
5.724	0.998624
5.725	0.994754
5.726	0.992174
5.727	0.985723
5.728	0.981853
5.729	0.980563
5.73	0.977982
5.731	0.975402
5.732	0.972822
5.733	0.967662
5.734	0.959921
5.735	0.959921
5.736	0.963791
5.737	0.961211
5.738	0.95089
5.739	0.941859
5.74	0.931538
5.741	0.922508
5.742	0.914767
5.743	0.918637
5.744	0.923798
5.745	0.928958
5.746	0.932828
5.747	0.926378
5.748	0.923798
5.749	0.925088
5.75	0.927668
5.751	0.926378
5.752	0.925088
5.753	0.919927
5.754	0.914767
5.755	0.914767
5.756	0.917347
5.757	0.912187
5.758	0.907026
5.759	0.903156
5.76	0.899285
5.761	0.896705
5.762	0.890255
5.763	0.890255
5.764	0.891545
5.765	0.897995
5.766	0.903156
5.767	0.901866
5.768	0.894125
5.769	0.887674
5.77	0.882514
5.771	0.878644
5.772	0.873483
5.773	0.867033
5.774	0.859292
5.775	0.864452
5.776	0.872193
5.777	0.870903
5.778	0.861872
5.779	0.854131
5.78	0.848971
5.781	0.843811
5.782	0.83736
5.783	0.83736
5.784	0.84252
5.785	0.847681
5.786	0.855422
5.787	0.854131
5.788	0.846391
5.789	0.84123
5.79	0.83865
5.791	0.83478
5.792	0.830909
5.793	0.827039
5.794	0.821879
5.795	0.825749
5.796	0.829619
5.797	0.828329
5.798	0.823169
5.799	0.819298
5.8	0.816718
5.801	0.815428
5.802	0.810268
5.803	0.811558
5.804	0.812848
5.805	0.818008
5.806	0.825749
5.807	0.823169
5.808	0.816718
5.809	0.810268
5.81	0.802527
5.811	0.810268
5.812	0.829619
5.813	0.861872
5.814	0.900576
5.815	0.94831
5.816	0.985723
5.817	0.992174
5.818	0.992174
5.819	1.01282
5.82	1.04249
5.821	1.06442
5.822	1.06829
5.823	1.05668
5.824	1.04507
5.825	1.03604
5.826	1.03217
5.827	1.02443
5.828	1.02701
5.829	1.02959
5.83	1.02959
5.831	1.0283
5.832	1.0283
5.833	1.02443
5.834	1.01798
5.835	1.01669
5.836	1.01927
5.837	1.01282
5.838	1.00507
5.839	1.0012
5.84	0.998624
5.841	0.996044
5.842	0.989594
5.843	0.983143
5.844	0.981853
5.845	0.983143
5.846	0.985723
5.847	0.979273
5.848	0.972822
5.849	0.967662
5.85	0.965081
5.851	0.959921
5.852	0.956051
5.853	0.95089
5.854	0.944439
5.855	0.940569
5.856	0.941859
5.857	0.935409
5.858	0.931538
5.859	0.928958
5.86	0.926378
5.861	0.925088
5.862	0.918637
5.863	0.916057
5.864	0.914767
5.865	0.919927
5.866	0.926378
5.867	0.923798
5.868	0.917347
5.869	0.912187
5.87	0.907026
5.871	0.901866
5.872	0.897995
5.873	0.891545
5.874	0.885094
5.875	0.887674
5.876	0.891545
5.877	0.886384
5.878	0.881224
5.879	0.878644
5.88	0.876063
5.881	0.873483
5.882	0.868323
5.883	0.867033
5.884	0.868323
5.885	0.873483
5.886	0.881224
5.887	0.878644
5.888	0.868323
5.889	0.861872
5.89	0.854131
5.891	0.847681
5.892	0.84123
5.893	0.83607
5.894	0.829619
5.895	0.8322
5.896	0.843811
5.897	0.851551
5.898	0.848971
5.899	0.84252
5.9	0.83736
5.901	0.830909
5.902	0.824459
5.903	0.828329
5.904	0.83349
5.905	0.83478
5.906	0.83349
5.907	0.829619
5.908	0.8322
5.909	0.83349
5.91	0.829619
5.911	0.823169
5.912	0.824459
5.913	0.827039
5.914	0.829619
5.915	0.83736
5.916	0.83865
5.917	0.83994
5.918	0.859292
5.919	0.881224
5.92	0.900576
5.921	0.914767
5.922	0.916057
5.923	0.907026
5.924	0.900576
5.925	0.897995
5.926	0.895415
5.927	0.888965
5.928	0.887674
5.929	0.886384
5.93	0.883804
5.931	0.881224
5.932	0.879934
5.933	0.876063
5.934	0.870903
5.935	0.869613
5.936	0.872193
5.937	0.865743
5.938	0.863162
5.939	0.861872
5.94	0.859292
5.941	0.858002
5.942	0.852841
5.943	0.850261
5.944	0.851551
5.945	0.854131
5.946	0.858002
5.947	0.851551
5.948	0.848971
5.949	0.846391
5.95	0.845101
5.951	0.843811
5.952	0.84252
5.953	0.83994
5.954	0.83478
5.955	0.83607
5.956	0.84123
5.957	0.83607
5.958	0.8322
5.959	0.829619
5.96	0.827039
5.961	0.827039
5.962	0.821879
5.963	0.816718
5.964	0.812848
5.965	0.811558
5.966	0.811558
5.967	0.805107
5.968	0.806397
5.969	0.805107
5.97	0.802527
5.971	0.797366
5.972	0.792206
5.973	0.784465
5.974	0.779305
5.975	0.784465
5.976	0.789626
5.977	0.784465
5.978	0.780595
5.979	0.778015
5.98	0.775435
5.981	0.770274
5.982	0.766404
5.983	0.770274
5.984	0.775435
5.985	0.784465
5.986	0.798657
5.987	0.801237
5.988	0.793496
5.989	0.787046
5.99	0.784465
5.991	0.784465
5.992	0.784465
5.993	0.789626
5.994	0.792206
5.995	0.784465
5.996	0.776725
5.997	0.776725
5.998	0.783175
5.999	0.790916
6	0.794786
6.001	0.799947
6.002	0.794786
6.003	0.790916
6.004	0.789626
6.005	0.789626
6.006	0.790916
6.007	0.787046
6.008	0.787046
6.009	0.788336
6.01	0.788336
6.011	0.788336
6.012	0.787046
6.013	0.784465
6.014	0.780595
6.015	0.780595
6.016	0.780595
6.017	0.776725
6.018	0.775435
6.019	0.774144
6.02	0.774144
6.021	0.771564
6.022	0.767694
6.023	0.766404
6.024	0.766404
6.025	0.767694
6.026	0.767694
6.027	0.763823
6.028	0.766404
6.029	0.771564
6.03	0.778015
6.031	0.780595
6.032	0.783175
6.033	0.783175
6.034	0.780595
6.035	0.779305
6.036	0.783175
6.037	0.778015
6.038	0.776725
6.039	0.776725
6.04	0.776725
6.041	0.779305
6.042	0.772854
6.043	0.771564
6.044	0.774144
6.045	0.776725
6.046	0.781885
6.047	0.776725
6.048	0.775435
6.049	0.775435
6.05	0.774144
6.051	0.774144
6.052	0.772854
6.053	0.771564
6.054	0.771564
6.055	0.763823
6.056	0.759953
6.057	0.757373
6.058	0.761243
6.059	0.766404
6.06	0.767694
6.061	0.770274
6.062	0.765114
6.063	0.762533
6.064	0.762533
6.065	0.766404
6.066	0.768984
6.067	0.763823
6.068	0.762533
6.069	0.762533
6.07	0.762533
6.071	0.762533
6.072	0.762533
6.073	0.759953
6.074	0.756083
6.075	0.758663
6.076	0.763823
6.077	0.757373
6.078	0.756083
6.079	0.754793
6.08	0.749632
6.081	0.740601
6.082	0.738021
6.083	0.747052
6.084	0.753503
6.085	0.762533
6.086	0.766404
6.087	0.762533
6.088	0.763823
6.089	0.766404
6.09	0.771564
6.091	0.775435
6.092	0.779305
6.093	0.784465
6.094	0.784465
6.095	0.778015
6.096	0.772854
6.097	0.770274
6.098	0.772854
6.099	0.776725
6.1	0.779305
6.101	0.781885
6.102	0.778015
6.103	0.775435
6.104	0.772854
6.105	0.774144
6.106	0.776725
6.107	0.771564
6.108	0.767694
6.109	0.762533
6.11	0.757373
6.111	0.753503
6.112	0.750922
6.113	0.748342
6.114	0.744472
6.115	0.741892
6.116	0.739311
6.117	0.739311
6.118	0.745762
6.119	0.752212
6.12	0.758663
6.121	0.762533
6.122	0.759953
6.123	0.754793
6.124	0.753503
6.125	0.754793
6.126	0.754793
6.127	0.749632
6.128	0.750922
6.129	0.753503
6.13	0.754793
6.131	0.757373
6.132	0.758663
6.133	0.758663
6.134	0.754793
6.135	0.753503
6.136	0.754793
6.137	0.750922
6.138	0.752212
6.139	0.752212
6.14	0.754793
6.141	0.756083
6.142	0.750922
6.143	0.748342
6.144	0.747052
6.145	0.747052
6.146	0.747052
6.147	0.743182
6.148	0.745762
6.149	0.749632
6.15	0.752212
6.151	0.756083
6.152	0.759953
6.153	0.761243
6.154	0.757373
6.155	0.754793
6.156	0.754793
6.157	0.750922
6.158	0.753503
6.159	0.757373
6.16	0.759953
6.161	0.765114
6.162	0.759953
6.163	0.754793
6.164	0.752212
6.165	0.752212
6.166	0.752212
6.167	0.749632
6.168	0.750922
6.169	0.754793
6.17	0.757373
6.171	0.762533
6.172	0.763823
6.173	0.766404
6.174	0.763823
6.175	0.759953
6.176	0.758663
6.177	0.754793
6.178	0.757373
6.179	0.761243
6.18	0.766404
6.181	0.770274
6.182	0.766404
6.183	0.759953
6.184	0.757373
6.185	0.754793
6.186	0.754793
6.187	0.752212
6.188	0.754793
6.189	0.758663
6.19	0.763823
6.191	0.767694
6.192	0.771564
6.193	0.775435
6.194	0.772854
6.195	0.768984
6.196	0.767694
6.197	0.763823
6.198	0.767694
6.199	0.771564
6.2	0.775435
6.201	0.780595
6.202	0.775435
6.203	0.770274
6.204	0.766404
6.205	0.762533
6.206	0.761243
6.207	0.758663
6.208	0.762533
6.209	0.767694
6.21	0.771564
6.211	0.776725
6.212	0.780595
6.213	0.783175
6.214	0.780595
6.215	0.775435
6.216	0.771564
6.217	0.770274
6.218	0.774144
6.219	0.779305
6.22	0.783175
6.221	0.785755
6.222	0.781885
6.223	0.775435
6.224	0.770274
6.225	0.770274
6.226	0.767694
6.227	0.765114
6.228	0.768984
6.229	0.774144
6.23	0.776725
6.231	0.780595
6.232	0.783175
6.233	0.787046
6.234	0.781885
6.235	0.779305
6.236	0.778015
6.237	0.775435
6.238	0.780595
6.239	0.784465
6.24	0.789626
6.241	0.794786
6.242	0.789626
6.243	0.781885
6.244	0.779305
6.245	0.778015
6.246	0.775435
6.247	0.772854
6.248	0.776725
6.249	0.780595
6.25	0.785755
6.251	0.789626
6.252	0.793496
6.253	0.796076
6.254	0.792206
6.255	0.788336
6.256	0.785755
6.257	0.783175
6.258	0.787046
6.259	0.792206
6.26	0.797366
6.261	0.801237
6.262	0.797366
6.263	0.789626
6.264	0.785755
6.265	0.783175
6.266	0.780595
6.267	0.779305
6.268	0.783175
6.269	0.787046
6.27	0.792206
6.271	0.797366
6.272	0.801237
6.273	0.805107
6.274	0.801237
6.275	0.797366
6.276	0.792206
6.277	0.789626
6.278	0.793496
6.279	0.797366
6.28	0.802527
6.281	0.807687
6.282	0.802527
6.283	0.796076
6.284	0.790916
6.285	0.788336
6.286	0.785755
6.287	0.783175
6.288	0.788336
6.289	0.792206
6.29	0.797366
6.291	0.801237
6.292	0.803817
6.293	0.807687
6.294	0.803817
6.295	0.799947
6.296	0.797366
6.297	0.793496
6.298	0.797366
6.299	0.802527
6.3	0.807687
6.301	0.812848
6.302	0.807687
6.303	0.801237
6.304	0.796076
6.305	0.792206
6.306	0.788336
6.307	0.787046
6.308	0.790916
6.309	0.796076
6.31	0.799947
6.311	0.805107
6.312	0.808977
6.313	0.811558
6.314	0.807687
6.315	0.802527
6.316	0.798657
6.317	0.797366
6.318	0.799947
6.319	0.805107
6.32	0.808977
6.321	0.814138
6.322	0.808977
6.323	0.799947
6.324	0.796076
6.325	0.792206
6.326	0.788336
6.327	0.787046
6.328	0.790916
6.329	0.796076
6.33	0.799947
6.331	0.803817
6.332	0.807687
6.333	0.810268
6.334	0.806397
6.335	0.802527
6.336	0.797366
6.337	0.796076
6.338	0.798657
6.339	0.802527
6.34	0.808977
6.341	0.812848
6.342	0.807687
6.343	0.801237
6.344	0.796076
6.345	0.793496
6.346	0.789626
6.347	0.787046
6.348	0.790916
6.349	0.796076
6.35	0.799947
6.351	0.805107
6.352	0.807687
6.353	0.810268
6.354	0.806397
6.355	0.802527
6.356	0.797366
6.357	0.796076
6.358	0.799947
6.359	0.803817
6.36	0.806397
6.361	0.811558
6.362	0.805107
6.363	0.797366
6.364	0.793496
6.365	0.790916
6.366	0.787046
6.367	0.784465
6.368	0.788336
6.369	0.793496
6.37	0.796076
6.371	0.799947
6.372	0.803817
6.373	0.806397
6.374	0.802527
6.375	0.798657
6.376	0.794786
6.377	0.792206
6.378	0.796076
6.379	0.798657
6.38	0.803817
6.381	0.808977
6.382	0.802527
6.383	0.796076
6.384	0.790916
6.385	0.788336
6.386	0.785755
6.387	0.783175
6.388	0.787046
6.389	0.790916
6.39	0.796076
6.391	0.798657
6.392	0.802527
6.393	0.805107
6.394	0.799947
6.395	0.796076
6.396	0.792206
6.397	0.789626
6.398	0.793496
6.399	0.797366
6.4	0.801237
6.401	0.806397
6.402	0.798657
6.403	0.793496
6.404	0.788336
6.405	0.785755
6.406	0.783175
6.407	0.780595
6.408	0.784465
6.409	0.788336
6.41	0.790916
6.411	0.794786
6.412	0.798657
6.413	0.801237
6.414	0.796076
6.415	0.792206
6.416	0.788336
6.417	0.785755
6.418	0.789626
6.419	0.793496
6.42	0.797366
6.421	0.801237
6.422	0.794786
6.423	0.789626
6.424	0.785755
6.425	0.783175
6.426	0.779305
6.427	0.776725
6.428	0.780595
6.429	0.783175
6.43	0.788336
6.431	0.790916
6.432	0.793496
6.433	0.796076
6.434	0.790916
6.435	0.787046
6.436	0.783175
6.437	0.781885
6.438	0.785755
6.439	0.788336
6.44	0.793496
6.441	0.796076
6.442	0.788336
6.443	0.783175
6.444	0.779305
6.445	0.778015
6.446	0.774144
6.447	0.772854
6.448	0.778015
6.449	0.780595
6.45	0.783175
6.451	0.787046
6.452	0.788336
6.453	0.789626
6.454	0.785755
6.455	0.781885
6.456	0.780595
6.457	0.778015
6.458	0.779305
6.459	0.783175
6.46	0.787046
6.461	0.789626
6.462	0.783175
6.463	0.779305
6.464	0.776725
6.465	0.775435
6.466	0.772854
6.467	0.771564
6.468	0.772854
6.469	0.775435
6.47	0.779305
6.471	0.783175
6.472	0.784465
6.473	0.785755
6.474	0.779305
6.475	0.778015
6.476	0.776725
6.477	0.772854
6.478	0.774144
6.479	0.778015
6.48	0.781885
6.481	0.784465
6.482	0.778015
6.483	0.772854
6.484	0.770274
6.485	0.768984
6.486	0.767694
6.487	0.765114
6.488	0.766404
6.489	0.768984
6.49	0.772854
6.491	0.775435
6.492	0.778015
6.493	0.778015
6.494	0.772854
6.495	0.771564
6.496	0.768984
6.497	0.766404
6.498	0.768984
6.499	0.772854
6.5	0.775435
6.501	0.778015
6.502	0.771564
6.503	0.767694
6.504	0.765114
6.505	0.765114
6.506	0.762533
6.507	0.759953
6.508	0.762533
6.509	0.765114
6.51	0.767694
6.511	0.768984
6.512	0.771564
6.513	0.771564
6.514	0.767694
6.515	0.765114
6.516	0.762533
6.517	0.759953
6.518	0.763823
6.519	0.765114
6.52	0.767694
6.521	0.770274
6.522	0.763823
6.523	0.758663
6.524	0.758663
6.525	0.757373
6.526	0.756083
6.527	0.753503
6.528	0.756083
6.529	0.758663
6.53	0.759953
6.531	0.762533
6.532	0.765114
6.533	0.766404
6.534	0.761243
6.535	0.758663
6.536	0.757373
6.537	0.754793
6.538	0.757373
6.539	0.758663
6.54	0.762533
6.541	0.763823
6.542	0.757373
6.543	0.753503
6.544	0.753503
6.545	0.754793
6.546	0.752212
6.547	0.749632
6.548	0.750922
6.549	0.752212
6.55	0.756083
6.551	0.757373
6.552	0.759953
6.553	0.759953
6.554	0.754793
6.555	0.753503
6.556	0.752212
6.557	0.749632
6.558	0.750922
6.559	0.753503
6.56	0.756083
6.561	0.756083
6.562	0.750922
6.563	0.748342
6.564	0.748342
6.565	0.748342
6.566	0.747052
6.567	0.745762
6.568	0.745762
6.569	0.747052
6.57	0.749632
6.571	0.750922
6.572	0.752212
6.573	0.752212
6.574	0.747052
6.575	0.748342
6.576	0.747052
6.577	0.743182
6.578	0.744472
6.579	0.747052
6.58	0.748342
6.581	0.750922
6.582	0.743182
6.583	0.741892
6.584	0.740601
6.585	0.743182
6.586	0.743182
6.587	0.740601
6.588	0.741892
6.589	0.741892
6.59	0.744472
6.591	0.744472
6.592	0.744472
6.593	0.744472
6.594	0.738021
6.595	0.739311
6.596	0.738021
6.597	0.735441
6.598	0.736731
6.599	0.738021
6.6	0.739311
6.601	0.741892
6.602	0.735441
6.603	0.735441
6.604	0.734151
6.605	0.738021
6.606	0.739311
6.607	0.734151
6.608	0.734151
6.609	0.735441
6.61	0.735441
6.611	0.736731
6.612	0.738021
6.613	0.738021
6.614	0.732861
6.615	0.732861
6.616	0.731571
6.617	0.72899
6.618	0.730281
6.619	0.731571
6.62	0.732861
6.621	0.732861
6.622	0.72641
6.623	0.72383
6.624	0.72383
6.625	0.72383
6.626	0.72125
6.627	0.718669
6.628	0.718669
6.629	0.72125
6.63	0.72125
6.631	0.72254
6.632	0.72383
6.633	0.72125
6.634	0.71996
6.635	0.71996
6.636	0.718669
6.637	0.716089
6.638	0.717379
6.639	0.718669
6.64	0.71996
6.641	0.72125
6.642	0.714799
6.643	0.713509
6.644	0.716089
6.645	0.71996
6.646	0.72125
6.647	0.717379
6.648	0.717379
6.649	0.71996
6.65	0.72125
6.651	0.72254
6.652	0.72254
6.653	0.71996
6.654	0.717379
6.655	0.718669
6.656	0.717379
6.657	0.714799
6.658	0.714799
6.659	0.716089
6.66	0.717379
6.661	0.718669
6.662	0.713509
6.663	0.712219
6.664	0.713509
6.665	0.716089
6.666	0.716089
6.667	0.712219
6.668	0.713509
6.669	0.713509
6.67	0.716089
6.671	0.716089
6.672	0.716089
6.673	0.716089
6.674	0.710929
6.675	0.712219
6.676	0.712219
6.677	0.708349
6.678	0.708349
6.679	0.710929
6.68	0.712219
6.681	0.713509
6.682	0.707058
6.683	0.707058
6.684	0.708349
6.685	0.710929
6.686	0.712219
6.687	0.709639
6.688	0.709639
6.689	0.710929
6.69	0.712219
6.691	0.713509
6.692	0.713509
6.693	0.712219
6.694	0.709639
6.695	0.712219
6.696	0.713509
6.697	0.710929
6.698	0.712219
6.699	0.714799
6.7	0.714799
6.701	0.713509
6.702	0.710929
6.703	0.712219
6.704	0.717379
6.705	0.72254
6.706	0.72383
6.707	0.718669
6.708	0.718669
6.709	0.72125
6.71	0.72254
6.711	0.72641
6.712	0.72899
6.713	0.730281
6.714	0.72383
6.715	0.72383
6.716	0.72125
6.717	0.71996
6.718	0.718669
6.719	0.71996
6.72	0.718669
6.721	0.718669
6.722	0.714799
6.723	0.716089
6.724	0.71996
6.725	0.72254
6.726	0.72254
6.727	0.71996
6.728	0.718669
6.729	0.718669
6.73	0.717379
6.731	0.717379
6.732	0.716089
6.733	0.714799
6.734	0.710929
6.735	0.710929
6.736	0.707058
6.737	0.708349
6.738	0.713509
6.739	0.716089
6.74	0.717379
6.741	0.716089
6.742	0.712219
6.743	0.712219
6.744	0.716089
6.745	0.718669
6.746	0.717379
6.747	0.716089
6.748	0.717379
6.749	0.718669
6.75	0.71996
6.751	0.72254
6.752	0.72254
6.753	0.72383
6.754	0.718669
6.755	0.72125
6.756	0.72383
6.757	0.716089
6.758	0.709639
6.759	0.705768
6.76	0.701898
6.761	0.698028
6.762	0.695447
6.763	0.695447
6.764	0.696738
6.765	0.699318
6.766	0.696738
6.767	0.695447
6.768	0.695447
6.769	0.695447
6.77	0.696738
6.771	0.696738
6.772	0.698028
6.773	0.700608
6.774	0.695447
6.775	0.691577
6.776	0.686417
6.777	0.690287
6.778	0.692867
6.779	0.694157
6.78	0.690287
6.781	0.685127
6.782	0.685127
6.783	0.686417
6.784	0.688997
6.785	0.691577
6.786	0.690287
6.787	0.688997
6.788	0.690287
6.789	0.691577
6.79	0.695447
6.791	0.701898
6.792	0.705768
6.793	0.703188
6.794	0.705768
6.795	0.717379
6.796	0.72641
6.797	0.72383
6.798	0.717379
6.799	0.709639
6.8	0.705768
6.801	0.705768
6.802	0.699318
6.803	0.696738
6.804	0.694157
6.805	0.691577
6.806	0.687707
6.807	0.690287
6.808	0.694157
6.809	0.698028
6.81	0.700608
6.811	0.703188
6.812	0.703188
6.813	0.704478
6.814	0.699318
6.815	0.694157
6.816	0.690287
6.817	0.692867
6.818	0.688997
6.819	0.683836
6.82	0.676096
6.821	0.672225
6.822	0.687707
6.823	0.709639
6.824	0.732861
6.825	0.754793
6.826	0.768984
6.827	0.762533
6.828	0.756083
6.829	0.754793
6.83	0.754793
6.831	0.754793
6.832	0.758663
6.833	0.768984
6.834	0.768984
6.835	0.766404
6.836	0.765114
6.837	0.779305
6.838	0.794786
6.839	0.803817
6.84	0.805107
6.841	0.798657
6.842	0.802527
6.843	0.812848
6.844	0.828329
6.845	0.83994
6.846	0.83994
6.847	0.83736
6.848	0.845101
6.849	0.856712
6.85	0.865743
6.851	0.874773
6.852	0.879934
6.853	0.881224
6.854	0.874773
6.855	0.870903
6.856	0.865743
6.857	0.864452
6.858	0.865743
6.859	0.869613
6.86	0.872193
6.861	0.873483
6.862	0.864452
6.863	0.860582
6.864	0.859292
6.865	0.861872
6.866	0.860582
6.867	0.852841
6.868	0.848971
6.869	0.845101
6.87	0.83994
6.871	0.83607
6.872	0.8322
6.873	0.827039
6.874	0.824459
6.875	0.825749
6.876	0.824459
6.877	0.820589
6.878	0.821879
6.879	0.823169
6.88	0.825749
6.881	0.827039
6.882	0.818008
6.883	0.814138
6.884	0.811558
6.885	0.810268
6.886	0.807687
6.887	0.805107
6.888	0.806397
6.889	0.801237
6.89	0.798657
6.891	0.790916
6.892	0.781885
6.893	0.776725
6.894	0.783175
6.895	0.797366
6.896	0.806397
6.897	0.799947
6.898	0.794786
6.899	0.792206
6.9	0.790916
6.901	0.788336
6.902	0.783175
6.903	0.784465
6.904	0.787046
6.905	0.794786
6.906	0.806397
6.907	0.806397
6.908	0.803817
6.909	0.799947
6.91	0.799947
6.911	0.794786
6.912	0.787046
6.913	0.778015
6.914	0.778015
6.915	0.779305
6.916	0.776725
6.917	0.778015
6.918	0.783175
6.919	0.788336
6.92	0.794786
6.921	0.798657
6.922	0.792206
6.923	0.787046
6.924	0.788336
6.925	0.793496
6.926	0.796076
6.927	0.790916
6.928	0.793496
6.929	0.796076
6.93	0.802527
6.931	0.810268
6.932	0.819298
6.933	0.823169
6.934	0.816718
6.935	0.819298
6.936	0.830909
6.937	0.83607
6.938	0.83736
6.939	0.83349
6.94	0.824459
6.941	0.815428
6.942	0.812848
6.943	0.808977
6.944	0.803817
6.945	0.794786
6.946	0.789626
6.947	0.794786
6.948	0.798657
6.949	0.803817
6.95	0.810268
6.951	0.820589
6.952	0.828329
6.953	0.83478
6.954	0.828329
6.955	0.820589
6.956	0.815428
6.957	0.819298
6.958	0.825749
6.959	0.83478
6.96	0.84123
6.961	0.84252
6.962	0.83607
6.963	0.829619
6.964	0.828329
6.965	0.8322
6.966	0.83607
6.967	0.825749
6.968	0.819298
6.969	0.814138
6.97	0.807687
6.971	0.798657
6.972	0.789626
6.973	0.781885
6.974	0.784465
6.975	0.787046
6.976	0.784465
6.977	0.785755
6.978	0.792206
6.979	0.799947
6.98	0.803817
6.981	0.799947
6.982	0.799947
6.983	0.814138
6.984	0.83607
6.985	0.856712
6.986	0.867033
6.987	0.859292
6.988	0.858002
6.989	0.861872
6.99	0.868323
6.991	0.870903
6.992	0.872193
6.993	0.872193
6.994	0.863162
6.995	0.858002
6.996	0.851551
6.997	0.855422
6.998	0.864452
6.999	0.876063
7	0.886384
7.001	0.891545
7.002	0.882514
7.003	0.876063
7.004	0.877354
7.005	0.883804
7.006	0.883804
7.007	0.873483
7.008	0.863162
7.009	0.856712
7.01	0.854131
7.011	0.854131
7.012	0.861872
7.013	0.873483
7.014	0.894125
7.015	0.922508
7.016	0.939279
7.017	0.935409
7.018	0.927668
7.019	0.928958
7.02	0.932828
7.021	0.937989
7.022	0.931538
7.023	0.923798
7.024	0.916057
7.025	0.907026
7.026	0.903156
7.027	0.910897
7.028	0.922508
7.029	0.926378
7.03	0.922508
7.031	0.937989
7.032	0.962501
7.033	0.985723
7.034	1.01024
7.035	1.02701
7.036	1.02572
7.037	1.02443
7.038	1.03217
7.039	1.04636
7.04	1.06571
7.041	1.07861
7.042	1.07345
7.043	1.06184
7.044	1.04894
7.045	1.03991
7.046	1.03475
7.047	1.04378
7.048	1.0541
7.049	1.06055
7.05	1.06829
7.051	1.07861
7.052	1.08506
7.053	1.08893
7.054	1.0799
7.055	1.067
7.056	1.05797
7.057	1.06055
7.058	1.06442
7.059	1.06829
7.06	1.06958
7.061	1.067
7.062	1.05926
7.063	1.06313
7.064	1.0799
7.065	1.09796
7.066	1.1057
7.067	1.09538
7.068	1.08377
7.069	1.07732
7.07	1.07345
7.071	1.07345
7.072	1.07474
7.073	1.07603
7.074	1.06571
7.075	1.06442
7.076	1.067
7.077	1.06571
7.078	1.067
7.079	1.06571
7.08	1.05797
7.081	1.04894
7.082	1.05023
7.083	1.05668
7.084	1.06958
7.085	1.08119
7.086	1.08119
7.087	1.06958
7.088	1.06442
7.089	1.06313
7.09	1.06829
7.091	1.07861
7.092	1.09151
7.093	1.1057
7.094	1.10828
7.095	1.1057
7.096	1.10054
7.097	1.1057
7.098	1.11086
7.099	1.11602
7.1	1.10699
7.101	1.10828
7.102	1.13022
7.103	1.15086
7.104	1.16505
7.105	1.1715
7.106	1.16505
7.107	1.15989
7.108	1.16376
7.109	1.17021
7.11	1.17408
7.111	1.18053
7.112	1.1844
7.113	1.18182
7.114	1.16892
7.115	1.15602
7.116	1.14828
7.117	1.15344
7.118	1.15731
7.119	1.15989
7.12	1.16247
7.121	1.16376
7.122	1.14957
7.123	1.13667
7.124	1.12635
7.125	1.1186
7.126	1.10957
7.127	1.10441
7.128	1.09925
7.129	1.0928
7.13	1.08248
7.131	1.06958
7.132	1.05926
7.133	1.05281
7.134	1.05797
7.135	1.067
7.136	1.067
7.137	1.05539
7.138	1.04765
7.139	1.04636
7.14	1.04636
7.141	1.04249
7.142	1.03217
7.143	1.02185
7.144	1.01411
7.145	1.00766
7.146	0.998624
7.147	0.989594
7.148	0.979273
7.149	0.967662
7.15	0.961211
7.151	0.956051
7.152	0.95347
7.153	0.957341
7.154	0.988303
7.155	1.0283
7.156	1.06313
7.157	1.07861
7.158	1.08377
7.159	1.07861
7.16	1.06829
7.161	1.06313
7.162	1.05797
7.163	1.05926
7.164	1.06442
7.165	1.07216
7.166	1.08119
7.167	1.09925
7.168	1.10957
7.169	1.10957
7.17	1.10183
7.171	1.0928
7.172	1.08635
7.173	1.07732
7.174	1.06958
7.175	1.07216
7.176	1.067
7.177	1.0541
7.178	1.04249
7.179	1.03733
7.18	1.03733
7.181	1.03733
7.182	1.04507
7.183	1.05281
7.184	1.06055
7.185	1.06829
7.186	1.07732
7.187	1.07861
7.188	1.08119
7.189	1.0799
7.19	1.07345
7.191	1.06571
7.192	1.06958
7.193	1.07603
7.194	1.07345
7.195	1.06958
7.196	1.07216
7.197	1.08506
7.198	1.10054
7.199	1.11731
7.2	1.13409
7.201	1.14699
7.202	1.14312
7.203	1.1328
7.204	1.1199
7.205	1.10957
7.206	1.09925
7.207	1.08764
7.208	1.07861
7.209	1.07216
7.21	1.06829
7.211	1.06184
7.212	1.05281
7.213	1.04378
7.214	1.0412
7.215	1.03733
7.216	1.02959
7.217	1.03475
7.218	1.04378
7.219	1.05152
7.22	1.06313
7.221	1.06829
7.222	1.05797
7.223	1.05023
7.224	1.05152
7.225	1.0541
7.226	1.05281
7.227	1.0412
7.228	1.03346
7.229	1.02959
7.23	1.03088
7.231	1.03475
7.232	1.04636
7.233	1.05539
7.234	1.07087
7.235	1.08119
7.236	1.07474
7.237	1.07216
7.238	1.07087
7.239	1.07216
7.24	1.07603
7.241	1.07861
7.242	1.07216
7.243	1.067
7.244	1.06055
7.245	1.05281
7.246	1.04765
7.247	1.04507
7.248	1.03991
7.249	1.03088
7.25	1.02314
7.251	1.0154
7.252	1.00636
7.253	1.00895
7.254	1.02959
7.255	1.05023
7.256	1.05281
7.257	1.04636
7.258	1.04765
7.259	1.05539
7.26	1.06184
7.261	1.06184
7.262	1.05023
7.263	1.03862
7.264	1.03217
7.265	1.0283
7.266	1.02056
7.267	1.01024
7.268	1.00507
7.269	1.00766
7.27	1.01282
7.271	1.01798
7.272	1.02572
7.273	1.03862
7.274	1.06313
7.275	1.08506
7.276	1.08893
7.277	1.0799
7.278	1.08119
7.279	1.08377
7.28	1.07345
7.281	1.067
7.282	1.0799
7.283	1.09796
7.284	1.11731
7.285	1.13151
7.286	1.12893
7.287	1.12119
7.288	1.12377
7.289	1.13538
7.29	1.1457
7.291	1.15344
7.292	1.15989
7.293	1.16505
7.294	1.15602
7.295	1.14441
7.296	1.1457
7.297	1.16376
7.298	1.18698
7.299	1.20891
7.3	1.22439
7.301	1.23214
7.302	1.22568
7.303	1.21407
7.304	1.20117
7.305	1.18956
7.306	1.17795
7.307	1.16634
7.308	1.15989
7.309	1.16376
7.31	1.17666
7.311	1.19472
7.312	1.21149
7.313	1.22697
7.314	1.24504
7.315	1.25407
7.316	1.24762
7.317	1.24633
7.318	1.2502
7.319	1.26181
7.32	1.28503
7.321	1.30051
7.322	1.29793
7.323	1.28632
7.324	1.26955
7.325	1.26052
7.326	1.25794
7.327	1.26697
7.328	1.28761
7.329	1.31083
7.33	1.32889
7.331	1.33792
7.332	1.33534
7.333	1.32373
7.334	1.3147
7.335	1.3018
7.336	1.30051
7.337	1.31083
7.338	1.31728
7.339	1.31728
7.34	1.31728
7.341	1.31083
7.342	1.29535
7.343	1.28761
7.344	1.28245
7.345	1.27471
7.346	1.26439
7.347	1.25923
7.348	1.25794
7.349	1.24762
7.35	1.23084
7.351	1.21536
7.352	1.20246
7.353	1.18956
7.354	1.18311
7.355	1.17666
7.356	1.16634
7.357	1.15989
7.358	1.14828
7.359	1.14054
7.36	1.14054
7.361	1.15473
7.362	1.1844
7.363	1.20891
7.364	1.2231
7.365	1.22826
7.366	1.22052
7.367	1.21536
7.368	1.21794
7.369	1.22052
7.37	1.21407
7.371	1.20246
7.372	1.20504
7.373	1.23859
7.374	1.31083
7.375	1.39469
7.376	1.46565
7.377	1.51725
7.378	1.54176
7.379	1.5366
7.38	1.53015
7.381	1.54434
7.382	1.55208
7.383	1.57144
7.384	1.59079
7.385	1.59595
7.386	1.60756
7.387	1.62304
7.388	1.63723
7.389	1.64884
7.39	1.65142
7.391	1.64626
7.392	1.63594
7.393	1.62046
7.394	1.60627
7.395	1.59079
7.396	1.57789
7.397	1.57789
7.398	1.57789
7.399	1.57014
7.4	1.55595
7.401	1.53789
7.402	1.53015
7.403	1.5237
7.404	1.51467
7.405	1.50177
7.406	1.48758
7.407	1.47597
7.408	1.46178
7.409	1.44887
7.41	1.43597
7.411	1.4192
7.412	1.40372
7.413	1.39598
7.414	1.40759
7.415	1.42565
7.416	1.44113
7.417	1.445
7.418	1.43984
7.419	1.43468
7.42	1.43855
7.421	1.47081
7.422	1.51854
7.423	1.55337
7.424	1.57918
7.425	1.58821
7.426	1.57789
7.427	1.58047
7.428	1.5895
7.429	1.58821
7.43	1.57402
7.431	1.55466
7.432	1.53789
7.433	1.53402
7.434	1.5495
7.435	1.56627
7.436	1.56885
7.437	1.56111
7.438	1.54563
7.439	1.52757
7.44	1.51725
7.441	1.5108
7.442	1.49532
7.443	1.48113
7.444	1.46952
7.445	1.46694
7.446	1.47597
7.447	1.49532
7.448	1.51338
7.449	1.51596
7.45	1.50564
7.451	1.49145
7.452	1.48887
7.453	1.49403
7.454	1.5108
7.455	1.52628
7.456	1.53273
7.457	1.51983
7.458	1.50693
7.459	1.50048
7.46	1.49274
7.461	1.48113
7.462	1.49145
7.463	1.51854
7.464	1.5495
7.465	1.57402
7.466	1.5766
7.467	1.56369
7.468	1.56627
7.469	1.5624
7.47	1.55595
7.471	1.55208
7.472	1.54047
7.473	1.52628
7.474	1.52112
7.475	1.51725
7.476	1.50306
7.477	1.48887
7.478	1.48242
7.479	1.48242
7.48	1.49661
7.481	1.50048
7.482	1.485
7.483	1.46952
7.484	1.46049
7.485	1.45661
7.486	1.44371
7.487	1.42565
7.488	1.41533
7.489	1.41146
7.49	1.41275
7.491	1.41017
7.492	1.40759
7.493	1.39985
7.494	1.39211
7.495	1.37792
7.496	1.36889
7.497	1.3676
7.498	1.35599
7.499	1.34567
7.5	1.35083
7.501	1.37276
7.502	1.40501
7.503	1.42823
7.504	1.44371
7.505	1.44113
7.506	1.44113
7.507	1.45661
7.508	1.47726
7.509	1.50177
7.51	1.51209
7.511	1.5108
7.512	1.50048
7.513	1.48629
7.514	1.48758
7.515	1.49403
7.516	1.48242
7.517	1.46823
7.518	1.45532
7.519	1.43984
7.52	1.44371
7.521	1.46436
7.522	1.49661
7.523	1.52112
7.524	1.5366
7.525	1.53531
7.526	1.52757
7.527	1.5366
7.528	1.54692
7.529	1.55208
7.53	1.55208
7.531	1.55337
7.532	1.5495
7.533	1.5366
7.534	1.53144
7.535	1.53402
7.536	1.53144
7.537	1.53144
7.538	1.54305
7.539	1.55595
7.54	1.55982
7.541	1.56111
7.542	1.55853
7.543	1.54434
7.544	1.53402
7.545	1.53402
7.546	1.54176
7.547	1.54821
7.548	1.54047
7.549	1.53144
7.55	1.52112
7.551	1.50693
7.552	1.48887
7.553	1.48113
7.554	1.48242
7.555	1.50435
7.556	1.54047
7.557	1.57789
7.558	1.60627
7.559	1.62046
7.56	1.61917
7.561	1.61014
7.562	1.59337
7.563	1.57789
7.564	1.56885
7.565	1.57014
7.566	1.58047
7.567	1.59853
7.568	1.61014
7.569	1.61143
7.57	1.60885
7.571	1.60369
7.572	1.59466
7.573	1.58176
7.574	1.57918
7.575	1.59079
7.576	1.60627
7.577	1.62691
7.578	1.65658
7.579	1.68368
7.58	1.69787
7.581	1.69787
7.582	1.68884
7.583	1.66819
7.584	1.64884
7.585	1.63465
7.586	1.61788
7.587	1.60498
7.588	1.59982
7.589	1.59724
7.59	1.58692
7.591	1.57402
7.592	1.55595
7.593	1.53918
7.594	1.52241
7.595	1.50693
7.596	1.49919
7.597	1.50048
7.598	1.4979
7.599	1.485
7.6	1.46694
7.601	1.45145
7.602	1.44242
7.603	1.43081
7.604	1.41662
7.605	1.39985
7.606	1.38824
7.607	1.38308
7.608	1.37792
7.609	1.36631
7.61	1.34954
7.611	1.33405
7.612	1.32244
7.613	1.31599
7.614	1.31986
7.615	1.31986
7.616	1.30954
7.617	1.30825
7.618	1.29406
7.619	1.29535
7.62	1.30567
7.621	1.32115
7.622	1.33534
7.623	1.33792
7.624	1.33147
7.625	1.31728
7.626	1.30954
7.627	1.29922
7.628	1.28503
7.629	1.26955
7.63	1.26181
7.631	1.26568
7.632	1.28245
7.633	1.31341
7.634	1.35212
7.635	1.38179
7.636	1.38824
7.637	1.37663
7.638	1.38308
7.639	1.39082
7.64	1.39985
7.641	1.40759
7.642	1.39469
7.643	1.37792
7.644	1.36373
7.645	1.35857
7.646	1.34954
7.647	1.33405
7.648	1.31728
7.649	1.3018
7.65	1.28632
7.651	1.27471
7.652	1.27471
7.653	1.28632
7.654	1.30825
7.655	1.32115
7.656	1.30825
7.657	1.29148
7.658	1.276
7.659	1.26439
7.66	1.26697
7.661	1.25794
7.662	1.25665
7.663	1.26568
7.664	1.28116
7.665	1.30438
7.666	1.33147
7.667	1.35599
7.668	1.37018
7.669	1.36889
7.67	1.36115
7.671	1.35341
7.672	1.34179
7.673	1.33792
7.674	1.32631
7.675	1.31212
7.676	1.31083
7.677	1.3147
7.678	1.31341
7.679	1.30825
7.68	1.29793
7.681	1.28761
7.682	1.28245
7.683	1.27858
7.684	1.27213
7.685	1.26826
7.686	1.25536
7.687	1.24762
7.688	1.24117
7.689	1.23472
7.69	1.22697
7.691	1.21278
7.692	1.20375
7.693	1.20891
7.694	1.23472
7.695	1.26568
7.696	1.29019
7.697	1.30825
7.698	1.31986
7.699	1.30567
7.7	1.29535
7.701	1.29019
7.702	1.29019
7.703	1.29148
7.704	1.29277
7.705	1.2889
7.706	1.29277
7.707	1.29793
7.708	1.29922
7.709	1.29664
7.71	1.29148
7.711	1.28245
7.712	1.27084
7.713	1.26052
7.714	1.25794
7.715	1.25536
7.716	1.24504
7.717	1.22826
7.718	1.21407
7.719	1.19988
7.72	1.18311
7.721	1.18182
7.722	1.18956
7.723	1.20246
7.724	1.21536
7.725	1.22439
7.726	1.22052
7.727	1.21407
7.728	1.21278
7.729	1.20891
7.73	1.19601
7.731	1.18311
7.732	1.17279
7.733	1.16505
7.734	1.15215
7.735	1.14054
7.736	1.13925
7.737	1.1457
7.738	1.1457
7.739	1.13796
7.74	1.12635
7.741	1.1199
7.742	1.13022
7.743	1.14054
7.744	1.15215
7.745	1.16247
7.746	1.1586
7.747	1.1457
7.748	1.13022
7.749	1.11731
7.75	1.1057
7.751	1.0928
7.752	1.08119
7.753	1.08119
7.754	1.09538
7.755	1.11344
7.756	1.11602
7.757	1.11215
7.758	1.10699
7.759	1.09409
7.76	1.08377
7.761	1.07345
7.762	1.06184
7.763	1.04894
7.764	1.03862
7.765	1.02959
7.766	1.03088
7.767	1.03733
7.768	1.03604
7.769	1.03088
7.77	1.02314
7.771	1.01153
7.772	1.01153
7.773	1.0283
7.774	1.05797
7.775	1.08248
7.776	1.0928
7.777	1.08893
7.778	1.0799
7.779	1.0799
7.78	1.07603
7.781	1.07345
7.782	1.0928
7.783	1.10828
7.784	1.12119
7.785	1.13022
7.786	1.12248
7.787	1.12635
7.788	1.1328
7.789	1.13667
7.79	1.13409
7.791	1.12635
7.792	1.11344
7.793	1.10441
7.794	1.10054
7.795	1.09151
7.796	1.08635
7.797	1.08506
7.798	1.08248
7.799	1.08119
7.8	1.0799
7.801	1.07216
7.802	1.07345
7.803	1.07732
7.804	1.08119
7.805	1.08635
7.806	1.07732
7.807	1.07087
7.808	1.06313
7.809	1.05539
7.81	1.04636
7.811	1.03733
7.812	1.03346
7.813	1.0283
7.814	1.02572
7.815	1.02701
7.816	1.02185
7.817	1.01927
7.818	1.02185
7.819	1.02314
7.82	1.02443
7.821	1.02572
7.822	1.02701
7.823	1.02185
7.824	1.01153
7.825	1.00249
7.826	0.994754
7.827	0.989594
7.828	0.985723
7.829	0.981853
7.83	0.977982
7.831	0.976692
7.832	0.976692
7.833	0.971532
7.834	0.975402
7.835	0.979273
7.836	0.970242
7.837	0.962501
7.838	0.957341
7.839	0.95476
7.84	0.95476
7.841	0.94702
7.842	0.941859
7.843	0.941859
7.844	0.944439
7.845	0.94702
7.846	0.940569
7.847	0.936699
7.848	0.934119
7.849	0.931538
7.85	0.928958
7.851	0.925088
7.852	0.921217
7.853	0.917347
7.854	0.923798
7.855	0.937989
7.856	0.94573
7.857	0.95218
7.858	0.962501
7.859	0.976692
7.86	0.985723
7.861	0.998624
7.862	1.01669
7.863	1.03088
7.864	1.02959
7.865	1.02056
7.866	1.02314
7.867	1.03862
7.868	1.05281
7.869	1.06184
7.87	1.05926
7.871	1.05281
7.872	1.04378
7.873	1.03862
7.874	1.04249
7.875	1.05539
7.876	1.06184
7.877	1.06184
7.878	1.05281
7.879	1.04507
7.88	1.03733
7.881	1.03733
7.882	1.05023
7.883	1.07474
7.884	1.10828
7.885	1.12764
7.886	1.12248
7.887	1.12506
7.888	1.13796
7.889	1.15989
7.89	1.17666
7.891	1.18956
7.892	1.19601
7.893	1.19343
7.894	1.18053
7.895	1.16892
7.896	1.15989
7.897	1.15473
7.898	1.14312
7.899	1.1328
7.9	1.13151
7.901	1.14312
7.902	1.16247
7.903	1.17795
7.904	1.19085
7.905	1.19988
7.906	1.19085
7.907	1.18827
7.908	1.19601
7.909	1.20375
7.91	1.20762
7.911	1.20633
7.912	1.19988
7.913	1.18956
7.914	1.17537
7.915	1.16376
7.916	1.15602
7.917	1.15215
7.918	1.14828
7.919	1.14054
7.92	1.13796
7.921	1.12893
7.922	1.11731
7.923	1.10828
7.924	1.10699
7.925	1.10441
7.926	1.09409
7.927	1.08893
7.928	1.08506
7.929	1.08248
7.93	1.07861
7.931	1.07216
7.932	1.06442
7.933	1.05797
7.934	1.05926
7.935	1.06313
7.936	1.05281
7.937	1.04378
7.938	1.03733
7.939	1.03217
7.94	1.02701
7.941	1.01798
7.942	1.01411
7.943	1.01411
7.944	1.0154
7.945	1.01669
7.946	1.00766
7.947	0.996044
7.948	0.989594
7.949	0.992174
7.95	1.00249
7.951	1.01927
7.952	1.03475
7.953	1.05152
7.954	1.07474
7.955	1.08764
7.956	1.0799
7.957	1.08377
7.958	1.07732
7.959	1.06442
7.96	1.05281
7.961	1.04636
7.962	1.03604
7.963	1.02959
7.964	1.02314
7.965	1.0154
7.966	1.02314
7.967	1.03217
7.968	1.03217
7.969	1.02314
7.97	1.01282
7.971	1.00766
7.972	0.999914
7.973	1.0012
7.974	1.01411
7.975	1.02185
7.976	1.01153
7.977	1.00249
7.978	0.992174
7.979	0.981853
7.98	0.975402
7.981	0.968952
7.982	0.970242
7.983	0.970242
7.984	0.974112
7.985	0.977982
7.986	0.968952
7.987	0.958631
7.988	0.95476
7.989	0.957341
7.99	0.963791
7.991	0.974112
7.992	0.984433
7.993	0.979273
7.994	0.974112
7.995	0.966371
7.996	0.965081
7.997	0.967662
7.998	0.968952
7.999	0.967662
